Date,A,AAPL,ABBV,ABT,ACN,ADBE,ADI,ADM,ADP,ADSK,AEE,AEP,AES,AFL,AIG,AIZ,AJG,AKAM,ALB,ALGN,ALL,ALLE,AMAT,AMCR,AMD,AME,AMGN,AMP,AMT,AMZN,ANET,AON,AOS,APA,APD,APH,APTV,ARE,ATO,AVGO,AVY,AWK,AXP,AZO,BA,BAC,BALL,BAX,BBY,BDX,BEN,BF-B,BIIB,BKNG,BKR,BLK,BMY,BNY,BR,BRK-B,BSX,BXP,C,CAH,CAT,CB,CBOE,CBRE,CCI,CCL,CDNS,CF,CFG,CHD,CHRW,CHTR,CI,CINF,CL,CLX,CMCSA,CME,CMG,CMI,CMS,CNC,CNP,COF,COO,COP,COR,COST,CPAY,CPRT,CRM,CSCO,CSX,CTAS,CTSH,CTVA,CVS,CVX,D,DAL,DD,DE,DG,DGX,DHI,DHR,DIS,DLR,DLTR,DOC,DOV,DOW,DRI,DTE,DUK,DVA,DVN,EBAY,ECL,ED,EFX,EG,EIX,EL,ELV,EMR,EOG,EQIX,ES,ESS,ETN,ETR,EVRG,EW,EXC,EXPD,EXPE,EXR,F,FANG,FAST,FCX,FDX,FE,FFIV,FIS,FISV,FITB,FOX,FOXA,FRT,FTNT,FTV,GD,GE,GEN,GILD,GIS,GL,GLW,GM,GOOG,GOOGL,GPC,GPN,GRMN,GS,GWW,HAL,HAS,HBAN,HCA,HD,HIG,HII,HLT,HON,HPE,HPQ,HRL,HSIC,HST,HSY,HUM,HWM,IBM,ICE,IDXX,IEX,IFF,INCY,INTC,INTU,IP,IQV,IRM,ISRG,IT,ITW,IVZ,J,JBHT,JCI,JKHY,JNJ,JPM,KEY,KEYS,KHC,KIM,KLAC,KMB,KMI,KO,KR,L,LDOS,LEN,LH,LHX,LIN,LLY,LMT,LNT,LOW,LRCX,LUV,LYB,MA,MAA,MAR,MAS,MCD,MCHP,MCK,MCO,MDLZ,MDT,MET,META,MGM,MKC,MLM,MMM,MNST,MO,MOS,MPC,MRK,MRSH,MS,MSCI,MSFT,MSI,MTB,MTD,MU,NCLH,NDAQ,NEE,NEM,NFLX,NI,NKE,NOC,NRG,NSC,NTAP,NTRS,NUE,NVDA,NWS,NWSA,O,OKE,OMC,ORCL,ORLY,OXY,PAYX,PCAR,PEG,PEP,PFE,PFG,PG,PGR,PH,PHM,PKG,PLD,PM,PNC,PNR,PNW,PPG,PPL,PRU,PSA,PSKY,PSX,PWR,PYPL,QCOM,RCL,REG,REGN,RF,RJF,RL,RMD,ROK,ROL,ROP,ROST,RSG,RTX,RVTY,SBAC,SBUX,SCHW,SHW,SJM,SLB,SNA,SNPS,SO,SPG,SPGI,SRE,STT,STX,STZ,SWK,SWKS,SYF,SYK,SYY,T,TAP,TDG,TEL,TFC,TGT,TJX,TMO,TMUS,TPR,TROW,TRV,TSCO,TSN,TT,TTWO,TXN,TXT,UAL,UDR,UHS,ULTA,UNH,UNP,UPS,URI,USB,V,VLO,VMC,VRSK,VRSN,VRTX,VTR,VTRS,VZ,WAB,WAT,WDC,WEC,WELL,WFC,WM,WMB,WMT,WTW,WY,WYNN,XEL,XOM,XYL,YUM,ZBH,ZTS
2019-08-28,0.006620894775514863,0.006710226490783455,0.006091006863040871,0.006814098412131431,-0.0016230258907397044,-0.02528936609262622,0.009154528923755123,0.0040083921366727004,0.002217571168587895,-0.06743894833923414,0.0,-0.011470117325914075,0.017111815777157258,0.0028584406047797994,-0.0054986820470720454,0.0015721077862618227,-0.001590318862908724,-0.0002266936092727434,0.0003373147475234095,0.020195595196800253,-0.0021436745766528764,0.005545847372161905,0.008569634252451719,-0.007157600699993605,0.019205295001774036,0.004538450996029342,0.00498816372572275,0.004870591822972115,0.0015229857936600588,0.0013735967509673763,-0.005809290637452946,-0.0030861496410694578,0.01371385119919366,0.03196549760665679,0.0011083894579242415,0.0017637945623083517,0.020488748164057657,0.00800025919329661,0.0022215529602940265,0.0017783976870622276,0.006819026592834954,0.007513853121753122,0.011380002929217481,0.030898018517074854,0.014771759266754891,0.014356076895069458,0.0031636224479936192,0.006250398316072214,0.01739900233594338,0.01074632772838724,0.001926969624759689,-0.0023733276557836858,0.0012682369971497298,0.011463546793681667,0.016439688315915912,0.008111755022231826,0.015230632667359911,0.002441949695632273,-0.006720506423438799,0.010587299118259619,0.006395084082358338,0.003168571668928921,0.011352598917029777,-0.004531402425255515,0.01305342677672039,0.009451543100907678,-0.0008329638557443841,0.01581185384845951,0.002601179279575927,0.008598777021033843,-0.004321277199967888,0.013279185155893325,0.03041721155642496,0.00702453284509974,0.010202531540281168,0.005044065885928095,0.008067287632312459,0.006431906829089007,0.007625123365251341,0.008383113412092635,0.0038984842926430563,-0.0021277243824286973,-0.0032892937536940225,0.019607818382360476,-0.0014385842221060763,0.006440171516519655,0.0010993521647550963,0.017807660927993574,-0.01660618730786767,0.019026997647630495,-0.003322231467993264,0.007216227574682543,0.010185529596844933,0.005091851759315036,-0.011330401893986597,0.0017097250013287102,0.015215248888560184,0.003943915548688226,0.00904507464700477,0.015314956186551543,0.004899650763226404,0.008633857086410845,-0.0033700653702987138,0.009618983208285803,0.0015637127234784387,0.017455229799701044,0.016431823938105827,0.00467854692114944,0.0014306188868216108,0.00896934929965143,0.015317182069823243,0.007811077114161069,0.02945734856972715,0.0011562998627432375,0.02080255624406946,0.03279087843057882,0.005689570435211344,-0.006671919444127816,0.00162756970271416,0.01283009403250257,0.027178841338268755,0.027948707646906268,0.0002931197543927233,-0.0030671291722157434,0.0012436452353141725,-0.024597830898788087,-0.021137308205597227,0.00997260866401084,0.009988160043758798,0.009778228933377209,0.012140418294939614,-0.0071566964921111476,-0.0033513755098059095,0.002822814677339913,0.013140745271499554,0.001962601537371267,-0.006126362725655254,0.009353704090891535,0.0041088803542366215,0.011018958342638774,0.007161884687215014,-0.0018972161250566666,0.027397204567001232,0.0461187852359366,0.005723725408523839,0.02755454348256281,0.024409891666960837,0.0019806945022955436,0.01753091992298228,0.0020479902678975925,-0.002149965878821325,0.018577126605133776,-0.0018975009716239999,-0.0043844927014285995,0.008584825951859498,-0.03722490460308825,0.00883678986822689,0.011343891849287857,0.0012609142311124089,-0.005201076017156359,0.005212582689458456,0.023309581488429654,0.006472534004502206,0.011451687706198088,0.015324700236290845,0.002722921965853553,0.0025023815054272536,0.008537161219254852,0.00745893105734563,0.006766214465850018,0.011864646427789616,0.011342931692339686,0.03986146602636742,0.00941602586997936,0.024681583912727678,0.014054295098304914,0.017139257807909702,-0.0023906465838132718,0.0059226469324353825,0.008559402771217917,0.01314470031963677,0.034029338676826226,0.003384526438050095,-0.002593949569300813,0.000661609595320245,0.0025411427801789177,0.006901959185845463,0.014776211543905626,0.009928319457369383,0.012121639853413635,0.001610635445917774,0.002774198740738587,0.001353105303472546,0.009596404416335469,0.013580816208308866,0.0,-0.004483961424107008,0.017691656984646587,-0.0013015550141595167,0.011534736041609372,0.012585310522766235,0.00145562279309841,0.0020688027931696773,0.007837794765898964,0.005645776461405516,0.032882810300154164,0.01309837203241071,-7.03237678187918e-05,-0.007405007916853501,0.010024949880037548,0.021505529170240623,0.01671774590992703,0.006799977304228655,0.0032951518629071863,0.008004743272068238,0.005738836842729356,0.010977879778091726,0.007127129432231483,0.016868141544366555,0.005268713569550165,0.00811500899363593,-0.0017820409490663103,0.0017687369572787492,0.007791660056762906,0.001244864384158495,0.0021674949113381636,0.0025790563179479697,0.0007643691869563263,0.020180883521790927,0.017570412823282533,0.013269855509793427,0.03254502141610982,0.005783549771623209,0.010307472683014796,-7.989625385085297e-05,0.017284713138975727,0.00934913475386745,0.006283669170689787,-0.004684695214729584,0.005110925943633271,0.008452724289741642,0.004277569463716491,-0.0034197620268466844,0.0025373050059664948,0.00896369030327926,0.005090660522810708,0.007833457624587536,0.011557317672770573,0.026692631153905078,0.013259142606766972,0.011325438301449164,0.02206021229176902,0.011225556257943303,0.0018451996517567792,0.014827935726986263,0.0021623356633773128,-0.001326102265348461,-0.0015122140328182043,0.01028786880322996,-0.0012977857108907864,0.016729245097101275,0.009777949495708427,0.0026459715668798456,-0.00704807804841745,0.0029448479750648904,0.002542672689334724,-0.004787858658644728,0.017676168719168217,-0.0007687190591286752,-0.0005656549180872439,0.014710296835654946,0.006665163592518342,0.007456249597689313,0.014803717510653014,-0.002598565818735299,0.015086197522587552,0.015544019357097039,0.0035551472221369007,0.01771077645113861,0.002652216477934344,-0.008398554093017263,0.018040946208260245,0.0179459580721526,0.0045870139120067766,0.007251898441426041,0.0008410243443670584,0.003190803349590654,0.021549091886710947,0.0,0.007051096614623775,-0.0013341076564609144,0.009187395967033662,0.000898410775969749,0.008600760410907515,0.01012052871871072,0.036540921568104956,0.019576184712849054,0.013533306494092123,0.0026457483268111925,0.015082374400108733,-0.0003429090728324091,0.0012774390894698673,-0.0011058092551365917,0.017056816910363537,0.01745639862485504,0.009491616368040523,0.00018609514588185938,0.005137137912600398,0.013854821698964459,0.007798944740341707,0.02213849575666793,0.018050258140508868,0.007665902176819062,0.02715961181850135,0.007721692401263525,0.01121355107474864,0.01458946425013563,0.005879791195655182,0.01930167415595796,0.003611684896473788,0.018463219838543043,0.020573569945822046,-0.006380970283824672,0.010198861938490955,0.016888333906008635,0.014164225343884507,0.006558320783994542,0.01184023185655092,0.008063177664459964,0.00043893157891683465,0.0008657162658236572,0.007355285290174818,0.005675183520475802,0.004030054285583784,0.008299375537236475,0.004473561893564071,0.018366393795011593,0.005323031940840384,0.0068612271201760056,0.018477195317316397,0.004484939468099247,0.007309754820105541,0.006912349990267019,0.019533519384656417,0.016955809314042947,-0.005353464468145219,0.020582579800504375,0.016236941106921643,0.022467703439018605,0.011468044604799887,-0.0007781699552731336,0.0004883678989280327,0.006443751302020129,-0.004962312814123737,0.02847110632566241,0.006780088161273845,0.008497434556742567,0.002904348008625268,0.004583390802839649,0.014730179469424787,0.006223999165738681,0.0029405644850235557,0.013648183962870375,0.02041577692014407,0.019827161905529023,0.005905612958290396,0.01927638899370976,0.024277494249066445,0.010580018805274483,0.0016257002552988453,0.014642112691324538,0.0,0.005474651423042154,-4.9018509175602354e-05,0.0005048882911113939,0.00027465796895875805,0.02570984883354699,0.013466380957850355,0.004398156697798639,0.01057840068702287,0.014811659703594104,-0.002098405416664617,-0.00078698108139863,0.016089463982662755,0.004246590155614127,0.01788846388528431,0.0026685930195760044,0.0054900195520182216,0.023952087444743198,0.011233691410109437,-0.00015643116380070765,0.007292824405348286,0.012830478493796482,-8.54371582932334e-05,0.019628558274943586,0.004231949353727726
2019-08-29,0.010866616542181573,0.016931897419884878,0.0022705491077381623,0.007124352865273131,0.009652853911378267,0.015950093652283392,0.014234021025192556,0.004258904280440401,0.013276305884997619,0.0182039050430145,0.01848172007271831,0.012160907502539953,0.01749655804458583,0.009771714804850395,0.00019075721205985552,0.007352206114292992,0.010011277801887042,0.01349353417698751,0.01972347402621666,0.014889173910095144,0.003042059386669127,0.016014346105733157,0.030718896183158373,0.0030894988288439063,0.021767383409599494,0.023778005819660164,-0.0026022672305487937,0.020500653713638073,0.001173497435197568,0.012554889043934425,0.022159331307286978,0.008606358058967922,0.023065053791839096,0.018955012707303487,-0.005979124161542115,0.028524921400710612,0.007498792267171872,0.013364065278803405,0.015700011412991044,0.02647954931699581,0.011522507966387652,0.006823327308886462,0.013855078152639422,0.01459430293287256,0.0076949998713296,0.017877321078887176,0.014633543251842518,0.009110851342710724,-0.07985516700056061,0.008023775698920987,0.0134615069934938,0.0,-0.004116359668703384,0.007796072414826494,0.01109047835080923,0.019814523813753926,-0.008014746888643787,0.016321558027261096,0.013609836768344818,0.013719132161972958,0.008237196053076712,0.011450098636036188,0.024695314417848335,0.0126975468099213,0.025334993708733933,0.002356896905969741,-0.005518509119380788,0.030333275578720897,-0.0034139103207572186,0.013824878896013137,0.032924228648456566,0.020080573754118314,0.01917193844459031,-0.00435946269082399,0.011422529814143045,0.01682893941167296,0.03424912789095558,0.014221326657070099,0.0027027589310579803,-0.0045628577612716326,0.009139079020489937,-0.0003243248273679944,0.005123099133541809,0.024038447251298445,0.008964312081332526,0.02206531347603269,0.011351581890639562,0.01926972753299805,0.023740735180141526,0.006544805090975325,0.011109857726973926,0.009291038201165946,0.012722077215103322,0.00973197849285845,0.027003882585129313,0.008534333367410385,0.020874790867052573,0.009230276187899511,0.018924531708286896,0.01851213847699218,0.01126426646758838,0.005905724390728562,0.011314836828493213,0.02117122985670261,0.026693295964522745,0.02461990891461352,0.10678625736020986,0.014069341681010705,0.0055103022100631005,0.01570017671128343,0.0094470770061994,0.019129380303801957,-0.019377513401039326,0.0034652909573751334,0.021708016795222163,0.013151601258945433,0.013643719037157886,0.0034740063152300937,0.004983633183000213,0.019093025105987982,0.02828493378662511,0.010975197492839817,0.010840647608844511,0.0043297038251655096,0.008075159183517755,0.001586700271048569,0.006269129552258779,0.007372015560560996,0.023561311240611227,0.02265244993749893,0.026885559506031775,0.00756984515780168,0.0014943524580821599,0.005660468589533396,0.022730357405042145,0.0062318020714473565,0.005511182677715221,0.014614985734193509,0.006892263521276032,0.012314234159235271,0.004869112637163608,0.0017355406423720243,0.013333269604367759,0.0201802150387429,0.022430474719190796,0.018994486599118954,0.027875859727384267,0.009226683566190053,0.031478915236572425,0.0023353255868905354,0.008337230816378716,0.02095453768918354,0.02820027607649722,0.029883521674097357,0.011322602313625252,0.0015414366292285653,0.016098781820783614,0.021732443010142877,0.021411036964170238,0.011328402026503648,0.0017284395772210193,0.004329621997239963,0.011368987798592967,0.019867760126719647,0.012897633876349346,0.01864183622793858,0.017457001216373724,0.011173682805126317,0.013277966255353935,0.007093794695135935,0.021439057955107366,0.01855572509721859,0.029444628208561197,0.017272097260784047,0.027195076720418987,0.014279896101241807,0.024194610075061407,0.0042799510277991,0.02128594750172419,0.006854178674156941,0.025383806350357085,0.02318621473530391,0.016863252720217492,0.0035461601198896187,0.014049561555720569,0.01267430981249218,-0.015516010841405414,0.012351585357305517,0.014942832946214457,0.015968861607564167,-0.005253461557011452,0.013062092093493405,0.015292013112201186,0.0036916280154037917,0.013398942688756188,0.023585937722572003,0.017733997661525835,0.03289682874632982,0.01642114494606073,0.00791927212663146,0.013785604768157933,0.009638880776237091,0.019615035411505666,0.012314019970792955,0.026783683225017674,0.028181354277236226,0.0018804048077611935,0.016901359005849326,-0.003419326657662425,0.0226590886470599,0.018575907978493733,0.007597079662347017,0.006357087528382044,0.008757562833340504,0.019573669373378122,-0.0007747723094877479,0.006910129563083123,-0.0010888273088568434,0.0068057626840456464,0.007966514337233832,0.01726515699554887,0.015869696537218925,0.022104621072763342,0.005563047193017034,0.014543067401518561,0.011534522758952725,0.00908189525409564,0.002863627868880947,0.04076535540295256,0.021546778536178257,0.02228307720445777,0.04595951150110711,0.01128532885563338,0.0036380639701818485,0.0031117247428977812,0.0264870274923954,0.011326813874998676,0.01991028634151326,-0.0010136194010582633,0.00932998545521313,0.007288608237265848,-0.0018523038320085172,0.009608983642677149,0.020961659466824933,0.00035533743508842086,-0.004455128322174096,0.004322434015086918,0.017835000059103656,-0.008092307263871668,-0.034896351291261785,0.02855510725797683,0.04813308889756329,0.0027753217351911275,0.01493754077687881,0.022535733862378393,0.01674351963816334,0.018884805642373825,0.01638229902369659,0.013348050007629064,0.012036027917216696,0.035226038727219855,0.01331450174451021,0.01258489975136512,-0.0003163645545448679,-0.018595716080373692,0.01717104054212437,0.011683855256720888,0.02275995839541234,0.011074369225391845,0.008769475008434613,0.011597490227526652,0.02306717040755868,0.025258517809004566,0.031923988336302056,0.03585185650874978,0.004246240401784895,0.005830877777027954,0.00735805378630805,0.0185532159969799,-0.0005289880430719984,0.004042256550011336,0.0044824084964001365,0.006030968254520097,0.010242917688500608,0.023321526058353248,0.009577966082395584,0.006139702553154214,0.007126641990568006,0.013140334775946005,-0.0018122036830747756,0.01242360201260162,0.030512101698152216,0.007779973666102169,0.016041116606571038,0.010622888465371183,-0.021528651645507324,0.013748360851165264,0.02017029857487196,0.005593488812860148,0.010180572481119476,0.004799664541736526,0.014542509673087789,0.001145029787436913,0.014853853236932002,0.02027714527383906,0.0169853257557111,0.01619056732020674,0.028244768078927285,0.001938286646096632,0.017529851361910875,0.010186377737228192,0.026241231995050907,0.02675765744578129,0.0028493442975012773,0.009852206826556964,0.022652102046075262,0.020318406197625594,0.023690220058550926,0.024388154928139727,0.005398315702753065,0.020808751658563107,0.015027648951192463,-0.002394220674680869,0.006489785321899477,0.028042266631320034,0.0038069766017698736,-0.014755374392835696,0.020240160174662014,0.015656294571620544,0.03334550317070395,0.0053624193811940835,0.011464529537971169,0.007846292723722836,0.0016905134221016915,0.029512042360696045,0.03754007352884403,0.013872852354840148,0.022792089513210545,0.02153485790608123,0.00907099118285104,0.01061547131588747,0.0010751276490124084,0.005434899700432982,0.009292336016386127,0.014562406653149562,0.029715150896239217,0.017163581939155126,0.014379607244613624,0.014466197606693987,0.035173576783242844,0.012328172593166764,-0.010248831654515844,0.020599607759741012,0.0038943845940349053,0.018487842860205328,0.01679535724716863,0.02280811138003358,0.00899247572629247,0.006762262116166706,0.027419202655521113,0.027168048224067487,0.007329492222825529,0.01150065728165317,0.021399622312877398,0.014382910676529859,0.0273141736844853,0.01753631241733289,0.047027925791619296,0.01570373228708477,0.013992161502040856,0.03408468041261847,0.005292368445460216,0.006258591852861928,0.010697842035409355,0.0035886475428421605,0.010985836293594398,0.03916427935754152,-0.00017285043950943102,0.019930534880460593,0.0221467987897086,0.030688679469414337,0.008621714673834768,0.00888736383014499,0.015834692271680995,0.009048557962736181,0.01628773442740017,0.01206532719157516,0.01658785426046605,0.01793373007223953,0.00949493422855463,0.009690738371814334,0.011081566111031504,0.018669806738449868,0.0029924151497113805,0.007583184047502689,0.007235434236702698
2019-08-30,0.00579850219077116,-0.0012916410254342203,-0.0072485452957541385,0.005894587938256368,-0.0028683763186025946,-0.007396277713682675,0.007429970542440323,0.008481129510022,0.002360043694475289,0.001332135139183066,0.0,0.004739992265581527,0.013888816038363672,0.011693969785895542,-0.008006443054765944,0.008692840678669045,0.02173955296313035,-0.002797046405038195,0.02049925526389873,0.01756045410224849,0.0016631411484269165,0.00490561884254026,0.01500729796537792,0.008213805956622355,0.0,-0.00208999400406229,0.007923636494146402,0.004282391616000192,-0.0009549313401955306,-0.005659435682760394,-0.003473939282353178,0.013840655371199606,0.008454299729230286,-0.02132467146594974,0.006594443873741751,-0.0009131212560355983,-0.0015606216422521246,0.003079347012316269,0.002273081245470321,-0.00257607671681348,0.004956572233727474,0.0033098034277361243,-0.003064386668824026,-0.01079277365996778,0.003721757807638504,0.006585970251962392,0.0016192363712639324,0.005142812157396648,0.002520097717587211,-0.004391654748616247,-0.00265658098098831,0.0023789737399531052,-0.001862298579621391,0.004736545517554536,-0.008683555212597227,0.0012321127603103221,-0.004143337031408789,0.008149637802531418,-0.006828869575129515,0.0010334976231356485,-0.0025677079822540305,0.0025761344270900377,0.007042217170402987,0.02034558400729458,0.010444281401513988,-0.0069263729525234075,0.0018495468799690773,0.01239588178206863,-0.00534422709959137,0.0018181690331051659,-0.0078237222891413,-0.001450718902148207,0.007465084456558468,-0.0018767145310865097,0.004398491811005156,0.005770568116758801,0.009639161655702777,-0.001685920753715986,-0.0006737774270365593,-0.006844725053207545,0.0020375687248952445,0.007417857989008514,-0.006187510647218675,0.0011400514205088808,0.00031737613846094526,0.006476667509435874,0.0025341072130895537,0.004639137041188457,-0.05733595886387932,-0.002103423941573035,0.004395228778470095,-0.006103055753757802,-0.0030403383432965336,-0.004621052072784848,0.0008980372793481184,-0.009731610095162213,0.007667931910048553,-0.003023274146065291,0.00016251901413388836,-0.013126809141773776,0.01280113838672281,0.0017020272231003108,-0.0016717470381638622,-0.0003454794861166288,0.0328418702970219,-0.010033217052881294,0.0,0.00019563111625497953,0.0040592754235044826,0.0028938476149571457,-0.004207838628498495,0.00024271791500685147,0.039520842456397975,-0.0011508966210183047,0.016151889896416582,0.006136451599545234,-0.007058468300606746,-0.002461958543243714,-0.00021587835682446155,0.015492715481094876,-0.024401372933611443,-0.0024757480177015623,-0.003332915686665938,0.008508110340254449,0.0021910925740762366,-0.016716094783026603,0.0005538570815557531,-0.027601883902651392,0.006658730033861859,0.007609223526075848,-0.003893768690819255,-0.002581960755743462,-0.0034818844886899125,-0.0009014600706482856,0.013560328797851406,-0.00159252175379887,0.0035511351601815733,0.00804294953564777,0.010909067940551687,-0.005872750965701279,0.000692439636721609,0.00585766495558504,0.005482522405452883,-0.005071960484189009,0.0026198978628595437,0.007675487664179803,0.0073671617480564056,0.001306284568182825,0.004761166356536339,-0.008082753364095918,-0.0065031303624245584,0.005321335150275663,0.010785673116251226,0.01313353166153397,-0.002316227617200739,0.015518826597740842,0.0029705372516175554,0.009500075765562777,0.017262260186133416,0.0017236196689462968,-0.0032941254464595726,0.008435068360315157,0.013511892290973604,0.00468983545842705,0.004877004141626173,-0.003981928463844486,-0.0031065558524806525,0.007813336119739445,0.0022941770649738125,0.008032585200290043,0.0023100935661148903,0.0010606220515558817,0.01672922552192535,0.002995899821447434,0.002269361168019346,-0.0012462178196889218,0.0025955956205094832,-0.0013709410233779806,0.008346948342280447,-0.0018368762957264861,0.006234515133987317,0.010234159373189167,0.011055710039969968,0.00376927118840098,0.004400985566080484,0.0037549419778164506,0.003101441925491333,0.013310119929326403,0.0011623804093154888,0.004818967679453223,0.007544683046672329,0.0015554691699048995,-0.0036897730792577743,0.009102693092987835,-0.0075206541511531055,0.01152118346359532,0.004948991797685487,0.012428761353656448,-0.005321206909791876,0.0009424887078299804,0.006257856890304225,0.012804989362896313,0.011542028623408696,0.005121605696913001,0.012187761399148123,0.010664207194654995,0.0016424723318126944,-0.0002754885289637521,0.0009357039370478937,0.005859584506172855,0.009118406648298327,0.00041314723872565295,0.007500721336026306,-0.0027131088978874507,0.010452696229521274,-0.005146390487373753,-0.006372578842275489,-0.00018152624767597825,0.0004221686313528039,-0.0002079903206575473,0.0018351364657005487,-0.004100813685847027,-0.001727876232105019,-0.008860808823614064,0.011376583689858721,0.006414064515424034,0.004918669067375703,-0.0015231183370361112,-0.0034637881811114823,0.013724139168863614,0.0003823860457177197,0.02721373073031219,-3.588954552213863e-05,-0.001733438655797781,0.0026245897284882247,-0.008520136665910893,-0.006427197920467753,-0.002772382605347512,0.00523470019043093,-0.003605202802475782,-0.0010853556452313784,0.0008350403357932912,0.0038523283225200267,0.0005389175264574053,-0.003197038776259431,-0.001593282493150494,0.004194471661147947,0.00848106464388354,0.018399540832556127,-0.011525135615423787,0.00108848410705642,0.013385458902279268,-0.0028826436896004504,0.006955940321429432,0.0048436857283900014,-0.004159251089486116,-0.00188265061792392,-0.00137985594813117,-0.00047857525110206467,0.00400506777387144,0.013431672646700976,0.010352388264037726,0.0007015202543838583,-0.009225738633397151,-0.005484746597054446,-0.010209566062432951,0.003736285658266336,-0.0077501497717292755,-0.00016332674828023475,0.020751772093481557,-0.0022930067925165387,0.0033403035963759375,0.0075625161826704534,0.0034826532612206584,0.0030536909820135794,-0.0021142153592484947,-0.0036232189256889535,0.0014516966973654455,0.0064954389553189,0.0066171214260393185,-0.0019171460813042218,-0.00435863618630028,0.0025364538832812755,-0.0019546966232708574,0.002753014307734114,0.00649145056762257,0.005219812601001239,0.0062268678416561585,0.0003760597457129755,-0.00783971064022082,0.00013172892248314305,0.009930516860625405,0.003562578022290319,0.004995805765340311,-0.0011942718303800115,-0.00866326480262114,0.004910319188355716,0.000278256326022186,0.000314843335312176,0.005901667074015959,0.008188270912068196,0.00704135794888594,0.009533490329785899,-0.007082116416637252,0.00519757038227131,0.01103460110026866,-0.001464980647407188,0.017266632054221187,0.008705649261010695,0.0012416051496464409,-0.0017895788202922924,0.010366415450640654,0.002938345403449505,0.00397780725398178,0.006648214266229635,0.010248801924023221,0.005208620950537091,0.006835807881796718,-0.01026984288784305,-0.0016780630401147523,0.005636832262853275,-0.004573858368631667,-0.0003428798562442603,-0.011668156557769205,0.013506343990063785,0.003945380314271052,0.022658735580582734,0.0052697078161760835,0.0008074340726684781,0.003538320066792666,0.0024085112949383536,0.004857668026748252,-0.002147668390553026,-0.004288403157092779,0.0005853677536744595,0.026369489634114007,-0.0013679146939833409,0.002036281997222167,0.0042691585481751115,-0.006509551975490635,-0.00522952982176994,-0.002147884266419098,0.0031294757161000053,0.006072449153026627,0.018022432380357056,-0.0066426725643115025,0.005062553493708322,-0.008246093868764626,-0.007761760895108605,0.004514208450969059,0.0005126556198844501,0.01824444424495142,0.005727436584563872,0.00013606962964951563,-0.021514235676355686,0.014391581270575937,0.007571968665836648,-0.0032476789698150377,0.0014568216744441642,0.009194945145107436,-0.004487009940463915,0.001663590105314805,0.003749206349206391,-0.2955104841374617,0.014656170373552158,0.0014218358788871122,0.002450074228174781,0.011138938900042916,0.005726338289255839,-0.0019316537258116107,0.000531913694300723,0.0049083641109133325,0.004727009436514384,-0.010244718085824167,0.005810752987753354,-0.00312402994375216,-0.021607827089855314,0.0037971681868720353,0.024574246023600477,0.004598905884335203,0.039760452845165606,-0.0016681537031196791,-0.0013381900048716755,0.008226837155510536,0.0002514356069538426,-0.004639251238314213,0.0015776804290601465,0.012634386275995668,0.007659674420047002,0.03602335263507306,-0.005882556974993736,0.0007307957210394012,0.0028795314961469476,-0.004518011099403196,0.007381780047387432,-0.0020524260023271346
2019-09-03,-0.009843705664893676,-0.014563580490816963,-0.005172097032333789,-0.014767847121117228,-0.012211667408438598,-0.007240509957068819,-0.03141242625905194,-0.0015768345812009477,-0.015484888924007678,-0.011693133609377626,0.017368764568991057,0.01788265396476052,0.0006524932606548628,0.0039854878041243325,0.006917941611909173,0.0017073726761607233,-0.01157548593267066,-0.00011213404178078701,-0.024299339956285193,-0.028398213810874817,0.0014648086628230583,-0.009763862780732269,-0.008538076891881574,-0.011201779934154166,-0.01748811227557423,-0.029675420352887727,-0.014859421672082096,-0.01380064676241155,0.03323320303118438,0.007628234940805445,-0.010281536851370121,-0.011496039335953001,-0.01977643766544912,-0.007417946085304106,-0.001593616646688889,-0.02113342610848179,-0.0193580084407321,0.0010015474745896924,0.013970664389076237,-0.030391862265527814,-0.02026252630954184,0.01712232737589936,-0.023012361825440752,0.0010347871988214408,-0.026559293271966267,-0.016721241598984915,-0.005969457711680115,-0.0019328516855401379,-0.0069127881020046855,-0.023196596809672343,-0.009512843254754766,0.0076283781340173995,-0.01051193428256536,-0.01252534741975131,0.021207791422831912,-0.015950463967451478,-0.0006239982926296017,-0.01260131467597081,-0.008420708536595045,-0.012339657442779761,-0.024806959621969105,0.002958873283682939,-0.014452155450012882,0.003941607189613894,-0.016554545265735188,0.014589112322204167,-0.0005874184950707129,-0.006122052650119891,0.016601021036123598,-0.009301475094230516,-0.004965010961126559,-0.019506067070332644,-0.025192453918440938,0.0011278131769050237,-0.028878942551923248,0.0054200572293072735,0.00662479469681454,0.0016887678825374675,0.0021581971240793862,0.026492494039362047,-0.00858579962470929,0.00216326666017963,-0.012583218439781052,-0.02250959413295417,0.02109423117934006,-0.010296000712862408,0.021668658206933644,-0.014661844685521452,-0.03296197889195063,-0.0026833160202057726,0.021514405427226047,-0.009193984104994946,-0.018364546182433994,-0.008356509597007289,-0.02140097616324066,-0.006622168019774888,-0.009997203323968917,-0.01467037539202043,0.0014662559917411055,-0.03717606021907982,-0.003775383335046234,-0.012317631557036912,0.01507159137188463,-0.009851438901782639,-0.0070661171378418874,-0.026402438296621034,-0.0029471236794201827,-0.0008792690493956146,0.006468333870859988,-0.015624135708609432,-0.0069210881301446925,0.01536837836288596,0.004530671624182636,0.023912252941898915,-0.013121059363317533,-0.019469756265387272,-0.01206802059226586,0.017121657867799067,0.010028322682262614,0.038495689635628993,0.004547774186089315,-0.013651046161141656,-0.008821897195453121,0.019572544129758285,-0.005192426280895779,0.03066359050006673,0.015635962590153207,0.00757638074492939,-0.01307719222417747,-0.019969866592297048,-0.0008088162709036784,0.01731122418859865,0.016722289051952943,0.0042330630295766,-0.02762606552320679,0.02073744620790574,0.00846137551843662,-0.01456005764553403,0.013965350464407278,-0.012517395298381695,-0.010146018996273987,0.0044290957445114465,-0.007633606250607494,-0.011011640697520253,-0.029392860228165563,-0.013057786425109463,-0.02042747282003121,0.011738900251212714,-0.005049280805229817,0.0025696860780541897,-0.01028619860111124,-0.02684337167546802,-0.004298395163504387,-0.005160670535612422,0.01888361522105142,-0.014523900573613746,-0.02651594067910168,-0.010404418181248154,0.0096966237671261,-0.011182644675125752,-0.008970648037746831,0.009293605996489429,-0.012547694236236917,-0.028007497328477737,-0.0048533344096098885,-0.01658964469763846,-0.017622402486519917,0.00564878739266228,0.007651793883290736,-0.004413081749852221,-0.024226406647640197,-0.027589818946189615,0.005359402279831338,-0.009776284860896767,-0.027924918803586274,-0.0019967852897089244,-0.016848794477812068,0.009780250840796034,-0.004593660001156019,-0.011475499898440211,-0.006621248563456916,-0.023878676094283402,-0.007654392821028755,0.005398084546364368,-0.0009736702309922629,-0.0006234825222740659,0.009149734238218077,-0.010063290041709139,0.005417785200095393,-0.010550978954700918,0.0031020882180108345,-0.012632027974974203,-0.020945820973211182,-0.005467057084383331,-0.021510659286177014,-0.009069922084592563,-0.014426624398932386,-0.02659860983289175,-0.00799220292075753,0.016326612826803588,-0.034028256660262546,-0.009052079536567503,-0.03202990228761571,-0.01082820384152483,0.004839304035986647,-0.012865787727138422,-0.01592862024438857,-0.0026903791750632067,0.0029604365070678984,-0.011833020806386596,-0.022891717870844874,-0.021371047716088887,0.021159977825971232,0.019042282022397217,0.013725561303158607,0.0028345082706047187,-0.0074000632248512055,0.004723795240286988,0.01393589378351634,-0.0018723023066754552,-0.011561449077395869,0.0033334367538593312,0.00017919011433953358,-0.0006170768788701375,-0.008893037618237343,0.008763498233199885,0.001509874421658619,0.02116320441209707,-0.009090673975134966,0.011543612410199744,-0.01796631426053097,-0.019782348399060457,-0.0044777765199683905,0.009472606167657993,-0.014199571931591715,-0.021851148428662204,-0.003853699077386752,-0.016680034559891088,0.006364020738244491,-0.011318105838707737,0.0076059091556666125,-0.0038926823892782014,-0.008352335406651923,-0.01766576342764903,-0.03456896975508128,0.00761345156933424,0.02864811527349609,-0.019045228116287283,-0.017555800433654456,0.006858966420175028,-0.02555726468716868,0.008738084635871335,0.0020812139138102204,-0.010912116442374109,-0.01205107136689021,-0.004858613133112977,-0.013201822637716076,-0.012768971661211492,-0.02202304573853653,-0.005770456544916924,-0.006184992402053058,-0.003349717614685943,-0.003104880563748025,0.029578133699222242,0.012534678136173927,-0.015182949634308551,0.017259057246060694,0.0020118488864069306,-0.004457802045532366,0.010988847007665559,-0.01832777302432731,-0.013524895920654978,-0.014443012120302079,-0.008574692857591493,-0.019939144200420755,-0.01624296395501279,-0.014545502699258805,0.022354774344962802,-0.009399638129765964,-0.009991865459716198,-0.003265319424803681,0.00026063519839580884,-0.01839953291632701,-0.008567735988243341,-0.020134204099834685,0.011741334314505414,0.00533873460425327,0.016033773110641247,-0.010334734452183025,0.009398688189482751,-0.0023747939860545575,-0.028955595411583213,0.0056216438959357795,-0.020680352417952186,0.011360753785820021,0.007906739911999638,-0.01683092313297152,-0.02783922735423716,0.0028332360021372516,-0.003249492098621354,0.004399585586420285,-0.018104674278999866,-0.009783198370617363,-0.01830753632735216,0.008516469346561362,-0.02979340165772293,-0.021091328504257545,-0.03407560127923015,-0.013712939691239434,0.012711082285451258,-0.01699717285537572,-0.02462390509439938,-0.020252291225747454,-0.01584779480158749,-0.010983285848070845,-0.02984530182591616,0.01005773363996143,-0.013441842102840718,-0.009338619681205196,0.004706002114513774,-0.009751263471860394,-0.014631265624089451,0.013108209032014262,0.0021746877903581208,-0.008100507105630927,0.000816145851109118,0.017306871050509987,-0.00657669641588976,-0.009079943956978975,-0.01791124271815414,0.025918258680104334,0.003827047616817625,-0.005841857022931163,0.01320333087808545,-0.03254750063419454,-0.010953741821799201,0.01957404532354934,-0.03018202962897054,-0.014613673202892086,-0.009672314399795545,-0.011510694578667602,0.0018835910429757519,0.0034030709620891386,0.020054402174281005,-0.0065760398881503646,-0.0237887975869695,-0.01993726469456203,-0.0030828386260620677,-0.012733966308577926,-0.012297244891990355,-0.011787299358172354,-0.010169312210128512,-0.007864792457121461,0.00415061117191895,-0.016587567496344935,0.002687060748046033,-0.020645831704636408,-0.0023490001949406647,-0.016242528349272534,-0.030222203824805782,-0.0137587008220309,0.006641654674273356,0.009198899495476587,-0.0013460315112966414,-0.014444469763739143,-0.016238313971275176,-0.011208569939828106,-0.025675128770637157,-0.012715980171797092,-0.008959229186016548,-0.009431361716807918,0.01854885232199921,0.00123796189461034,-0.00833953378450114,-0.0073325591206014895,0.01662345683333233,-0.010271961767929105,-0.0020632853906278337,-0.04912581545609107,-0.001415843374496073,0.0034921311186761894,0.02046588147287376,0.02032161888473749,-0.010307015779622564,0.0015080910223341792,-0.0021184187868106275,0.0033257917430329353,-0.011668513954961712,0.003420818635059941,-0.0437586591979795,0.02039889297844022,0.001168145743011495,-0.025714700620203756,-0.0005995545421469961,0.0013648748486005946,0.004904381888282794
2019-09-04,0.006391300809245548,0.016966445808507036,0.014984816444700177,0.0019034091817899945,0.010012823579967023,0.007611944781607871,0.026414905502921693,0.006580561410591823,0.014951067896925574,0.02260008912041256,0.0,0.00291006906814828,-0.003259773483992867,0.008137865904159547,0.03816797021208296,0.004788498028156285,0.004015250644725299,0.01974859125443018,0.017931172681820762,-0.008599846820320889,0.013263521360620256,0.015000476419678055,0.03990779290036084,0.0,0.0016181600332187962,0.021468074818825622,0.0038921218247158773,0.016273724318827343,0.013580671451334014,0.006022901313268436,0.008649527395238499,0.014484863606746723,0.015350881380907122,0.02942554478034487,0.008246308003790226,0.011786775609265332,0.03224632088987822,0.017334130824889105,-0.007246989601102927,0.03273078718329114,0.015000937457943841,-0.005791838440377117,0.006802661125853371,0.018035431971392013,0.005953321159860803,0.016266218878898453,0.010634648868192986,-0.003189812713659701,0.011390633878938017,0.026932177853479455,0.007683262457379492,0.017665016339900586,0.008508051986547693,0.008759863184629735,0.020767673607185122,0.00756330951908879,0.0016651035371579859,0.009391126867025701,0.011141313240008222,0.006421147755666823,0.009119296491796547,0.007143056817213722,0.013560274835398234,0.024249108871721825,0.017687546988268688,0.008135918816388532,0.0007558965858307509,0.012127065618152466,0.010096220376007103,0.005037839888196061,0.005283249392078027,0.010793613921702638,0.010945366323437122,0.0040066736693871174,0.00865311248486167,0.018600820056631884,-0.01322697287550001,0.008697202533192838,0.0075355447710490076,0.012380173738907985,0.03737442026570603,0.01515397823164144,0.01257446566843834,0.020971983298525787,0.001553386033955384,-0.011486753062588506,-0.004948998783430247,0.007147016824889274,0.005641921495323388,0.02421190602180423,0.013564887462871766,0.013936434002754572,0.017718051638381915,0.012038543340848085,-0.001767541510444559,0.01763445045765244,0.01733221623705683,0.015696424173334833,0.015126884840247934,0.007084687945567936,0.01598273581775267,0.008428758616760623,0.004441847377118613,-0.0010472521631502696,0.015270529790731624,0.0059674991624816265,0.013943314206450896,0.00439952882752892,0.014259847876479936,0.0027883993535053886,0.011591186762977879,0.007328935412423299,0.029512718886914868,0.01266197174690653,0.007998925044213623,0.017703189221974336,0.02175358899268809,0.0013650988663553854,0.003202747725424837,0.010420235750111972,0.03395204323969203,-0.0025165648464623436,0.011443322783299292,0.0023169481725715535,0.0054943396192908,0.01940652084156902,-0.0029971903894583374,0.016190915083212243,-0.014994238925572612,0.020719077072153036,0.019425497231325695,-0.013111601866921174,0.01252029024429846,0.008647865870516247,0.008663311149781139,0.0033859530338222754,0.003813982670066496,0.005717910084128475,0.001669435684307663,0.013815765269013625,-0.0006213065867574086,0.008655819497717987,0.0109889955673379,0.008453719334793997,0.008075324182350352,0.024256042911515507,0.023749977167142555,0.006446562666190481,-0.0016395930783140722,0.008420255779871377,0.004251744077920172,0.008158858482832931,0.02405175135133386,0.024107265824159896,0.010254528542232855,0.002434967765062357,-0.029846613022038393,0.007554943820915261,0.05642292463858012,0.013918905155389627,0.004763981789483562,0.00018440025098920287,0.007034332351581352,0.012190985693782963,0.036033852788703635,0.011143505576235224,0.01087590870745725,0.008700201696718368,0.015545782974523803,0.016500301315763855,0.013871445878538946,0.0077791624136289705,0.0,0.001645240663261438,0.0131987738505972,0.011253902597143428,0.006465857968111388,0.014613647568544552,0.0024994876174209146,0.01084187152810534,0.02207546094641999,0.01927357673682173,0.011570288202519263,-0.007236744421873276,-0.008122157063773838,0.01933867571110781,0.009191233095705797,-0.022042999463692925,0.0,0.016554423179182765,0.005225538707898547,0.009857408615007834,0.010541756208519049,0.025194604756397343,-0.030477078271529456,0.04129438811428621,0.007424312316395065,0.0157647622967223,-0.015918373659589147,0.016991229804282026,0.0046159118703454904,0.019024527298382443,0.011926226486433267,0.004507544056493451,0.017695072625104613,0.02044084435355331,0.00928335632062205,0.008715353319675767,0.0009321416660075243,0.012067123256548129,0.011097446992062165,0.011077069440045495,0.00767432654726008,0.004805362384507683,0.004802209223026432,0.008267678077363838,0.010437424531609008,0.008499046925122489,0.027072240269561343,0.013964150775542583,0.01470783958950217,0.016025205366615225,0.00358025435072884,0.014819653571175095,0.001762448463153543,-0.006230331355390306,0.011411884876340705,-0.0009338974413553025,0.006655813025213675,0.04066864838441453,0.014013445518868961,0.01336531447337097,0.021384436553507413,0.0052393165010489184,0.011426703547787076,0.02058258949167535,0.006309457450453859,0.019201130405559264,0.009988934482652922,0.002627337001075647,0.01006477028004471,0.0017679768005931518,0.01274766926084725,0.02604316731338474,0.014396445312242712,0.006458612768822425,-0.0013026800757504065,0.009014275935881333,0.00728664101474652,0.005903554036526426,0.016228457257315476,0.020547806036135485,-0.00692434854872348,0.011842098786402966,0.013173944527462567,-0.014090730336762558,0.011688042985364078,0.001791696812112109,0.0069234291119038005,0.010980065712337339,0.04045343251165967,0.009094485326614388,0.0038177627297588668,-0.006384205581623892,0.015598105583243926,0.007708512778424437,0.004989740783285512,0.019841757712393937,0.015918767004809098,0.011141367583478612,0.004155321462141703,0.036701452603495666,0.015000765645889258,0.015238616053565135,0.027959092206469638,0.019382723143314795,0.025092312442533737,0.013649223481134287,0.006089756064635132,0.017662341434256046,0.020813121049860994,0.012374262868863672,0.021087268855850105,0.01716055449500753,0.01899131326612724,0.003432629574814161,0.012294432738213068,-0.008028848527723897,0.008442227659890333,0.015244067989845567,0.008463436145117686,0.013915405000359815,0.013827427225209687,0.01665014975880985,0.009459789081309955,0.004954300494653063,0.01427924397301994,0.016609311058641163,0.003557095011185618,0.009870329701228364,0.00033661687245056804,0.012843870977713223,0.007324156677918969,0.009203115616953195,0.002211781376988853,0.022195340259904883,0.018548131831919168,0.026225254521036856,0.018376258828285863,0.017603193862943067,0.004840272833254389,0.012622549790839432,0.014430498863361008,0.03289603458785351,0.0004350890094064752,0.010794134593880012,0.01327712285926852,0.019262900551934248,0.009045610808070537,0.0017841998822689664,0.01612784353272878,0.00564488257343343,0.01282615466843251,-0.006819994048896549,0.018704152796396922,0.014207785008932383,-0.006543342892977866,0.039722270740986554,0.010317244531953706,0.016155668349074004,0.005688519914815782,0.004280538234171738,0.0020487383870599896,0.003484167974481256,0.02498018559484838,0.05054344856011572,0.008783094530576019,0.009701160319269375,0.02494267560305574,0.017643312822586354,0.004034309833307104,0.008056897696215204,0.009610138684228886,0.014124956426585289,0.0033657651383376397,0.02122425650715587,0.013061801088991354,0.006091190451874118,0.0023951501116508123,0.008358908043676339,0.006223512981760049,0.051369727274792165,0.011207620714320354,0.017551092522535505,0.001097665003171322,-0.07750067557798668,0.006746033161146192,0.00820296066394155,0.023410409644458063,0.018560747065174743,0.009140133761680547,0.004123646336455344,0.0023987431480692045,-0.0364348975268306,-0.016867540151140448,0.0047069593163413526,0.018238942439522843,0.028540305420232892,0.008458117557679445,0.014341176040890025,0.0028160807598995863,-0.005142938744653436,0.00680086615439035,0.006826580927919101,-0.010464438439409252,0.005495133207662928,0.024390122981518658,0.0024124215349090594,0.007445982711907995,0.002835701658397305,0.03236485536196976,-0.0008185190297598233,0.011819143218595896,0.008895478646340882,0.009370104151722236,0.006369219533090442,0.011077995647294836,0.00439514193839452,0.008333325444616069,0.034083343401837496,0.004425285213281782,0.010647746581521567,0.008976496208857654,0.010110827631974573,-0.009900113280986389,0.004329201243963521
2019-09-05,0.03753908173717946,0.019551543683144157,0.009791921852009944,0.019947879029580173,0.009003056889226535,0.011068144163491889,0.03507629826970993,0.010199049036190955,0.02097724538991108,0.02688100998513021,-0.01719972449199858,-0.016335032149843,0.009810492621281641,0.006694463421988983,0.005147140149700302,0.0004037410879118575,0.0015628401668350556,0.01826588591855338,0.027075715374469178,0.004138766908551084,0.004619350396122712,0.019222786406687176,0.016966171369391825,0.006179108862742533,0.017770572649520977,0.03710207249894748,0.006446458879710848,0.03202612905390656,-0.02206840600464577,0.022270161635782326,0.04044560548148213,0.0010240038600364265,0.028509866600862965,0.02858463992036886,-0.012532025714568795,0.03564001304912967,0.04727393457785367,-0.0026211683487540327,-0.01153558823740597,0.0282666550821582,-0.003673031380744596,-0.01724258773277032,0.019172406567110833,0.010528064582277397,0.010574127891241236,0.029659716361550847,-0.025625192897476445,0.004685736795335238,0.028625122818671134,0.014801380187914548,0.030499536253622894,0.009714001330792366,0.021296062614406974,0.018200119171590368,0.040247537626501906,0.021846031493530482,0.008104688020223794,0.02146922203961532,0.013330075669800268,0.01013899315992095,0.01331751209159271,-0.0007711596344919247,0.03204723622762162,0.0006763402692500087,0.03266169950512343,0.004879356957461667,0.00025172850537713565,0.010840617629791938,-0.013416396094948269,0.027796844843690494,0.03080292861827094,0.008584338260196445,0.02857145292830121,-0.03354523185901648,0.020422837073602373,0.006150586608714814,-0.012684572453922849,0.0023758342887461037,-0.007746681011681966,-0.01314175206123247,0.019552163646117116,0.0005431745664958854,-0.0002028440718393476,0.038195431942035896,-0.016749411675839432,0.01162023179575633,-0.005683836560574251,0.027454543782619467,0.021578144079691386,0.002627024317184423,0.010096115799433925,0.002869908488123407,0.014826787578154477,0.06542422295336414,0.008592301596699325,0.023245928166605534,0.008296414127671792,0.012234648353937061,0.029642628560318407,0.001054985971172373,0.017840134176172917,0.003326180939441148,-0.010251519367260653,0.016774441385492,0.0067175502378027385,0.030187280008472817,0.012801062297620236,-9.71551952312355e-05,-0.010693098872902373,0.019178697157206992,0.006889351523986065,0.0017398653569304923,0.025047592889694936,-0.017782803403321612,0.030884362852544367,0.019276204819356213,0.01588582862426602,-0.016280607539600478,-0.0059592762474287575,-0.01978025280575335,0.02889661645364794,0.029263513540494168,-0.007252360927015533,0.00033011959391404666,0.0024583520111496338,0.009660711443746361,-0.02555367555645882,0.011148566917425162,-0.011839661861564932,0.03740983106528173,0.00039685273900968987,-0.013411063680611068,-0.005576461111693631,-0.002120574061775571,0.035114787954469096,-0.009258274536481204,-0.015501379348461741,0.023287524347193278,0.0025000157373160636,0.019527945068516628,0.02214465204603777,-0.018782337143958605,0.015217647804453671,-0.0017379135227745257,0.036715780568191914,0.02583378555707916,0.03344615351966462,-0.006832078661318075,0.02658951632790041,0.009657593255371522,0.022673779395581795,0.030828443200151545,0.02107811384331404,0.02056043609922531,0.0030829431523409223,0.02774220532490923,0.017025229416054888,0.008179880982370324,0.0011360760338090525,0.006864242946824417,0.012486182760051756,-0.002762110101039328,0.023433765101730897,0.04306557034439007,0.022979056566842848,0.025368058429365403,0.025307323737746135,0.03009019128481283,0.029378883575247317,0.006056904471836377,0.026372049086790028,0.032106390073427304,0.012793138623336198,0.012959874282402417,0.03754829343064281,0.024235505554295322,0.017845061440650456,0.00468939903436838,0.027234574827444513,0.012676273491012413,0.019325251998053794,0.04727269628078634,0.029956485107366593,0.00047061889042954164,0.012610554216274439,0.023255725793224657,-0.006815353082159414,0.0019327289793926727,0.0011549691653012228,0.034111017731122795,0.004986409073603593,0.0035652433404547157,0.035284868300683,0.023234911803583502,0.021257328499090233,0.024120930426871467,0.02095628233383562,0.01836543831769144,0.017298263574866413,0.005163709184121901,0.024082085657767927,0.013483533722230101,0.03194992001133379,0.028845968864026128,0.00539224014395967,0.03317092314856973,0.010613136036367266,0.01837738830874347,-0.002172876077643493,0.022754279248603293,0.03902467894668571,0.03610190782633893,0.012566613225867274,0.004782171245507838,0.0023232943529156724,-0.015319144902488757,0.008853881345107562,-0.011654909158003601,0.0068937806691764525,0.006371834162482104,0.013695344384035968,-0.005770173512403498,0.013675013026977378,-0.007114073243080554,-0.0024524594904077324,0.011920765145492673,-0.010100939431424871,-0.017753352459358718,0.020461169864435247,0.02319486625451539,0.008061252118565676,0.023476593928788203,0.02090175220767243,-0.0015558270326108126,0.02203847803932013,0.014756321550146279,0.004530990156453862,0.02669905069054823,0.005905959176360387,0.02751520240948313,-0.001067911846377334,0.0005571864765874235,0.03281630374491051,0.02009172006585147,0.01819514230464847,-0.008596855328286801,-0.019102250689540967,0.025988407808716918,0.012228712843249667,-0.010158428757575666,0.06718078217797196,0.03592603879858092,0.0005813413350674868,0.010803445215470164,0.022634151331567764,0.022719376127154245,0.017582870555365337,-0.029901578745223367,0.021669980540593325,0.03879310942588554,0.047425548879809876,0.0248824536634622,0.021119346249557136,-0.019230574232174336,-0.04095581086521327,0.005934424161563534,-0.01787483375659704,0.023972216559901893,-0.009756485415692961,0.010481107767841946,0.027452485374129143,0.05310251354381079,0.023419941354712703,0.02129816651963634,0.06506280455462843,0.009859100983770963,0.007919433313670066,-0.019479608384538993,-0.0002817593481860836,0.01709585480238185,0.01642458788734147,0.020509016334062213,0.03464893091461074,0.017113573725310083,0.04185729318875819,-0.008470385731425667,-0.01602808005937051,0.01423412351566311,0.02549463409761521,-0.0036524639798830583,0.003540612640813512,0.05165132713251208,-0.006094316764589935,0.0038944447999844645,-0.009136772096827728,-0.014653433695753226,0.023255741109006856,0.020563200857813158,-0.016784848296343968,0.016320124107694678,0.014146374343296353,0.028499223033336962,-0.02200177760312738,0.03191749524422671,0.0011035005231088135,0.021713173231186822,0.02510798350707044,0.024646656656802657,0.02100443931601248,0.0015041671219797603,0.010017237135829138,0.036752122865581605,0.024605883886970492,0.049666078947047776,0.018138454564987194,0.059200406218730794,0.01846337410154386,0.017109676068752355,0.03199022697705334,-0.011354614529680895,0.015108714943389279,0.02147661175917981,-0.022579176258506473,-0.005722988821424857,0.024566792298404083,-0.00028019872513684874,-0.015054577849702433,0.03274717442222652,0.019415398328860967,0.0313029433439842,-0.01014788546390466,-0.000599487357538897,0.02172088142014683,-0.015069390755293899,0.03124978093458375,0.03699439522851811,-0.024978238988500823,0.04780939510316329,0.04354105672663655,0.03034068297147363,0.005570681901513774,-0.009191066038366169,0.004759274515820255,0.0009411172393614109,-0.0067278363587116585,0.03925668424407602,0.028323961027843403,0.010991059389311442,0.025183874750427826,0.02840148118274488,0.002834344388041643,0.08358572006463927,0.03667293812585526,0.010522228053783111,0.02672011466397728,-0.009295626370193877,0.021453788465712886,-0.010471593582388583,0.017818734087358568,0.041394935371091846,0.02300074593671786,-0.00718692446718594,-0.0076577819276475445,0.03475263331846978,0.012614162027861253,0.03779401121363701,0.014480667853737694,0.03271271711251367,0.015440408150148466,0.016284505850938436,0.02687871071864323,-0.0018867376033251393,0.004299062924281838,0.014985545111206644,0.017135094429234776,-0.005331670371985675,0.02431570341588407,0.007046896278976256,0.02548992900165037,0.027946616747029474,0.044159609140600686,-0.023758358579675565,-0.01481755304850152,0.02408620474846135,-0.00871508013771416,0.015611793786766581,-0.004054780702006822,0.005953746722501929,0.011796023898667185,0.022126557463684193,-0.010179238770593457,0.014143216541152581,0.032399282761779835,0.0022900552726679013,0.011086065817246915,0.003762374818866876
2019-09-06,0.010337146064751668,-9.364009310930399e-05,0.008802106374520946,0.0016295679175974964,0.008170798993791806,-0.009765412888249392,-0.0030969013913610954,0.0020707180149508453,-0.00011546064225087527,0.014370563117462654,-0.012314756303117291,-0.00480726811455523,-0.008419733354778303,0.008605620605028452,0.0031088646548933507,0.004521816306409576,0.008580867667190129,-0.0077804323922620044,0.004129055635591072,-0.011574744761408962,0.008909962591996612,0.003346010501520613,-0.00496529870438589,0.01023556464980735,-0.029841286795479927,0.01064211973162732,0.0003852562094530665,0.010044326587941965,-0.013403873530747568,-0.003916990505865581,0.0013594700432986162,-0.0016363350670967058,0.003989826655216744,-0.014115515631702436,0.004541948870232959,-0.005234339778806163,0.006578250619218906,0.006044979454206567,-0.005379336542714941,0.003058281801395335,0.00228222156453306,-0.006559752128363905,-0.003977838548386847,0.007756382723243638,0.0074937521355780135,-0.013869347363036022,-0.005209373610260193,0.021271629680799986,0.008971791157809328,0.018509056815426694,-0.004069690089402278,0.022820594658758075,0.002723703304451597,-0.013442379269291926,0.0004251460361939241,-0.002096042320448799,-0.004947324189561231,0.004904828394439065,-0.00927662686733799,0.002399090389719971,0.019713685532870562,0.004243456116224564,-0.00557728631339538,0.0236594226705793,-0.0023579967873095242,0.0024902232004184732,-0.004278097489883503,0.013358401958407429,-0.004283708457367363,0.013522582483242118,-0.008639011543389419,0.009757178893418095,-0.0017543652116099873,-0.02064513988164207,-0.00786270587961646,0.008695684240926038,0.018543148739997406,0.008864919546306638,0.005518814158456564,-0.000986461300368835,-0.0012927090201084734,0.008545089698612784,-0.002135699834551197,0.0015522273926869001,-0.010094763963621411,-0.005418292225987442,0.018221107395449465,-0.0014717686292939902,-0.015890596545387048,0.0035550688727652435,0.0032542623275044757,0.02286426173953715,0.00036365276033634153,0.009552123027369408,-0.01755879464046861,0.00867395984455932,-0.007934211703836458,-0.003928954937072904,0.0029567076150076588,-0.0024594048481277886,-0.008445086672677626,0.005270233758793319,-0.013690043677987096,-0.0036088980721908914,0.00406138705868786,0.001407360321343143,0.010761853055979875,0.014505255421001895,0.0034029782923885588,0.009653673258998019,0.005113956493226324,0.015394298045730448,0.018489320300534295,0.00650617042515611,-0.010298201943322871,-0.0027678988832358087,0.01144634718073978,-0.007928510918284726,0.003746580523245502,0.023973773725815217,-0.006382904540032985,-0.010539135631918772,0.0066231876726197125,0.0028609550810207995,-0.00013642982419825866,0.0010454458228488228,-0.004627662483540296,0.010000911999250794,-0.007324442337584003,0.006630213336581425,0.011111419947118284,0.005607926848132161,0.0039011719093096087,0.007206541369273456,0.01586291585885591,-0.008297145563663011,-0.012658464724509932,0.005822762969445394,0.0,0.009370288630307977,0.001216210965633735,-0.012046232405093393,0.0,-0.020993515771411952,0.016097842780689042,-0.011542403283705815,-0.011359831388221941,0.00343926501519376,0.012874246868298522,-0.009924715882935975,-0.0007359172392455982,0.0003736696085512303,-0.0011795379793022587,-0.000583987283137799,0.006146246533160538,-0.0036073305398112154,0.00543315332296479,0.0020804883096348092,-0.011350560555078992,0.044737758114765436,0.011864032338458896,0.014770986027579536,0.009247222833987934,-0.008747151257284536,0.0012912045860156152,-0.005324492832330385,-0.004842409321814234,0.008229987844694309,-0.002688127375881866,0.004936803085622499,0.0007726775662477703,0.005202757949027692,0.004736928334839963,0.012703885829298045,0.0,0.014889069102903996,0.01306178786998169,0.005500762864672382,0.003547396990276841,0.0028886570753876573,0.004636834624375918,0.01180555195918398,0.010047715201137786,0.0011749971762862188,-0.004366819501338992,-0.0035883761140762527,-0.008234635090433762,-0.004368044770150181,-0.0007690911669510081,-0.0028374824279225885,0.0016888948249338398,-0.0050356689268460375,0.0008301487775015381,0.029345211521344616,-0.0003784380038761581,0.016367011564845768,-0.015428495705200329,0.001523647848522991,-6.486569780095319e-05,-0.0012086669642727976,-0.005726437358747671,0.002850872667750526,0.006668032393908119,-0.004361262585437564,0.010508076141922063,-0.015119233173897073,-0.0006999479039360157,-0.0024978720000143895,-0.0028775299946653954,0.0021354089926983733,-0.014084626833272162,-0.012588116430857221,0.025949714179108296,0.02326805310921687,-0.00013229356386679214,-0.010252282642179589,-0.004875693099782641,0.0019959637538662367,-0.00523572647826076,0.006536143586339582,-0.01351031595430463,0.005997089002401701,0.014311646686413493,0.012114569560973232,0.01293417312098466,-0.004799408947479877,0.0036611533038821698,-0.005707732715545144,0.004377708254362567,0.005204416425276692,-0.007235378848857055,0.005799108002396025,-0.0023968584356369727,0.0036618030774187016,0.007550763290736562,0.011875862782471991,0.0024604207876870454,0.019024744489192225,0.015773882852357257,0.004371741297756859,0.008728443562431742,0.009004907741755552,0.006093844578493268,-0.01786280874571533,0.011436722042050596,0.0075113817526744064,0.009033374939314998,-0.0017657011714664606,-0.0272248132781322,0.0,0.008255765954192196,-0.00019049313228014508,0.005458384796207083,-0.0013858977014311602,-0.006828139899008878,0.0248058694737594,-0.006783168158169595,0.007086400456148612,-0.004486959930699808,-0.0011666260228447856,-0.0012236145154702616,-0.003632239273907989,0.021956156032305385,0.0015014341909806994,-0.017285335084739617,-0.010503002781314219,-0.011459314174775193,0.003053839271059955,0.0017978865530694499,0.003723517914220098,-0.006921116276029093,0.004250278997151247,-0.0022213966030346644,-0.0037736075369936284,-0.0060644159025404765,0.011855019852589077,0.007857061715067282,0.0126671280014381,0.011405575332136486,-0.00513282831682127,-0.012630241180083046,0.007942877078891186,0.00820573744633557,0.003222188037179441,0.002052756234145914,0.00033084350437517784,0.010222199510417695,0.004402638649449564,0.011131714465002496,0.0008959522958675858,0.01123736761803018,0.010778662040207276,0.009343323688006056,0.0007958333255437822,0.002364415254889396,0.014176925660150275,0.001216386151982718,0.0024840474364382636,-0.005301720857928682,0.021528113939317972,-0.010627816286648994,0.003051819600078831,-0.0029429282301729476,0.014651145396748166,0.01112227073355987,-0.0037840801133305346,-0.012650260472595765,-0.0018993384752504783,0.013746112545536482,0.005106593432274931,0.009088903821308225,0.0027007756701713515,0.007629776093665441,0.0033949327590883094,-0.0002135759568544504,0.0147449183784365,-0.008186956094820785,-0.0003999260943370331,-0.0016460003015299485,0.0007881403711691437,0.004961137348026279,0.000358415495713027,-0.0031152144149414474,0.001883711383613429,0.007067256297975888,0.00041134675364640216,0.005063245165249253,0.004110296695070348,-0.004415328964278764,-0.00301474786301148,0.0030253379582214635,0.007930374550161323,0.011025924241859553,0.0011983048252695028,-0.012006947035111182,0.004251403075189009,-0.0008784111866195765,0.011076841231942414,0.0068069994806425616,-0.012019377436168877,0.005358215977194547,0.01788081152487897,0.01003057122901252,0.0045129758520212615,0.0017637099324065986,0.003597217013333598,0.0014387546753880098,0.01206938707414551,0.006634314183876944,0.0035031815136421507,0.016960166573672053,0.03359493456874407,0.004954512000355571,0.007249131152328836,0.005437501529216071,0.009148525278964703,0.0015650426329847367,-0.004491903839080935,0.0022078027509953024,0.004104377531563452,0.005358885525303059,0.011996139528698269,0.02149702746220128,-0.015250730885725927,-0.0025698162380231038,-0.009209790191816558,-0.009240597282903162,0.003433714365799423,0.002628191087185927,0.005467658861229463,0.01745023413002822,0.015049676580072724,0.0063592428045280425,0.004792330346211404,0.008173030221920952,0.008174854978636903,0.014837262127011641,0.008021802223327823,0.004118171189327224,-0.004034428955266844,0.004681307426264381,-0.02307771593589325,0.0032933824652743304,-0.009869821099957932,0.0020151716344540826,0.0020770537344525497,-0.006150226350532417,0.00030344375606405904,0.0045129168407596065,0.0009881392242241382,-0.005372176059666112,0.00939234328983618,0.008231879696773525,0.00888615030748685,0.001433310156673917,0.002810471403856596
2019-09-09,-0.0013466155897091658,0.004267137257170983,-0.013605350676991312,-0.02115284145339913,-0.03127477688705016,-0.019793692005731223,0.0017753192474470048,0.024799858911430883,-0.03001460375937648,0.004456256346833998,-0.013256600157499965,0.0031835638504675856,-0.01828882200207871,-0.0095017773337579,0.010209907856037592,0.0018485879974059483,-0.006961195348813787,-0.024286684429811634,0.033686460968474385,-0.010853386970078316,0.004558100079607996,-0.010207051914850496,0.011177825246150297,-0.0060788311629916825,-0.0019633333439436074,0.00560107542080357,-0.025946992714354966,0.023153820763586852,-0.03693204598137545,-0.0011780869502403535,-0.019389020469241736,-0.009473155778099818,0.026981494022286112,0.05816553962434279,-0.040914808575462036,-0.003918405503924971,0.017577435121854945,-0.0036575917680976566,-0.012375096705080968,0.0023979794120978504,-0.006743313466517464,-0.026571178295204723,-0.0022464876677571466,-0.014125303843879333,-0.01162538373523192,0.032455808339338255,-0.041251114043694304,-0.028736657572299484,0.04325582022621899,-0.01782992227026403,0.031946870979691955,0.020224779769470125,0.024179509723851078,0.012512532826898903,0.027624413261386982,0.016563209266529544,-0.003729199357560442,0.0569362535506861,-0.008596351898686239,0.00923166819269472,-0.03935555936586299,0.0014595060529858372,0.042746545627480925,0.030596702203590675,0.03708219309588956,-0.004781949420087583,0.0,0.027664274914307452,-0.020213348815015464,0.04133855244791107,-0.022714233398437478,0.004317600515295172,0.04628005367750454,-0.029776138473373126,0.0001201249127025239,-0.013952838542642954,0.05435624541259454,-0.013398461870439582,-0.020213976386173504,-0.022895304918888804,0.001510130593907144,-0.030316777801691286,0.003981663162266447,0.038218072811359916,-0.02087296534451466,0.007409024996949176,0.009824416611494469,0.03140922845502003,-0.017038603779958694,0.02498614845246694,0.009383680525301363,-0.015670283813453367,-0.03994854041199136,0.01118215400371203,-0.010127771342635317,-0.005323254984354042,0.022659978679460124,-0.039558359029767454,-0.004189390117797842,0.012680671064266846,0.023300567644980008,0.009555326919064466,0.003927928983411988,0.0022421583574467885,0.01863621353393019,0.011755728273111776,-0.004828655202988363,0.007676662287402269,-0.007181428706249937,-0.03443484500349503,-0.005159524585852782,-0.004120756870458764,-0.00656815547038081,-0.01039902071835519,0.004099115298729528,0.027983790336195247,0.016655829937577415,-0.007060859217289495,-0.00042640175961716764,0.030318330292134377,0.054818056938488846,0.02551419152392409,-0.02859333508170403,-0.008229203364334636,-0.015399181067079715,0.011124174217055804,0.00197222995231372,-0.007873192820736286,0.007522962115999121,0.024578127277432138,0.04657255546031447,-0.02865965249242941,-0.006678922577923796,-0.004249973071442925,0.01921935457216284,-0.008454204973396995,0.00015630502410668434,-0.04012547688772894,-0.0018704251273023997,0.00969290869657069,-0.0037962347399610463,-0.012193030388844783,0.021413169133199794,0.009833075950135495,0.01615983687161804,0.029724296176121268,0.03428672126951926,0.005141433580748478,0.013312191067205159,-0.027820048265418618,-0.017860452884837508,0.028774244749103506,0.003542792796563221,0.0020449669631283918,0.005214971161156878,-0.013608015340702218,-0.006718119323298355,-0.023874920023184587,0.028702822708531528,-0.004486229333419911,0.023295194833728328,0.011463067966162699,0.015488866436179638,0.01270702247297506,0.020629167615989763,-0.0004315735419340161,-0.0008705540132954992,0.01070723030053422,-0.020473634032785015,0.020129429548757738,0.02301988520169429,0.02760418474202786,0.04504973160044812,0.013701083099270539,0.046528727320249263,0.011181613483636221,0.007528043370345072,-0.00033165385137445824,0.002093001175613951,-0.012908166698797352,-0.008763463112757441,0.026080918352242355,-0.004712511201698133,0.0072767423960635735,0.017056517440496854,0.02881152961986988,-0.01780081772385811,0.007970321000855263,0.01192775368194443,0.014441437070975782,-0.028559283603177166,-0.07373379874394148,-0.005449118734275116,0.017563042619149982,-0.00340732774287289,0.013158195872943201,-0.04134820830898234,0.01851381223988602,-0.014279302281083428,0.011497746497053596,-0.016961518623704652,-0.00196810458237473,0.008000517145940522,0.026908627756164094,-0.0021661924555123058,0.028264613863728583,0.0016345952408591824,-0.0015566316563462301,-0.009827838210778594,0.02477584016622547,0.05178587412776703,0.005915289990903849,0.029325376395928915,0.021188656922801474,-0.003113245884821203,-0.03462505566720586,0.0,-0.012855916581230087,0.019838364706353362,0.006696545853868807,-0.0308148833634313,0.008461154620363232,-0.002602327320700093,-0.02738675641133015,-0.022741404304405632,-0.02612909714376077,-0.016426939217289216,-0.018560982772229062,0.0006972531512912106,0.010617498940684866,0.018028417750254988,0.043689799218638914,-0.02752388966554198,-0.00263918776216987,0.0037086781979480676,0.007425253473551274,-0.012589458830031597,0.014914303117187222,0.0013237204767886368,-0.01437344704554655,-0.0026487046721994645,-0.006992356551718704,0.003676815205132078,0.006773844494178283,0.008164808195904483,-0.022912014187275176,-0.019106352175717434,0.012199655564530065,0.0010495255415909899,0.004333544127759215,0.03275311365785338,0.021154756744616643,-0.03580897774286107,-0.010306013110656265,0.02204809973588784,-0.015584236690163067,-0.011358535064779907,-0.017905978293240254,0.052649505311512135,-0.00791261506131491,0.0032671293222579223,0.015732918488656766,-0.013619831376521674,-0.0011359701329460847,-0.01551970916810963,0.014370879623802013,-0.014319746403928968,-0.0002259125971608711,-0.03246604002355147,0.0026495616360231455,0.012909794012292197,0.05386692907845303,0.03707425233464767,0.02133181175134169,0.01035552901265202,0.01654028690085707,0.01842658488511595,-0.009216944438613539,0.025615841318738397,0.011994198714053717,0.025959460781262544,0.007229893034257584,0.006715753062180196,-0.026882255307597802,0.031168340132426753,-0.0006620285968492734,-0.007061205277891447,0.009040901725502426,0.027706179160130073,-0.005697078532727939,-0.008398932160992634,0.022882847018726338,0.005496132230628836,-0.0008945771885244813,-0.0018868956733416598,0.0045222282381713885,0.034694462703946716,0.014868164956925334,-0.014497280366508436,0.006305174634178012,-0.0009191763235377737,0.024705106737646032,-0.010446447354080957,0.015189780108875395,0.012486316968891353,0.03652808228389426,-0.0419809121210023,-0.007990851047986691,0.02029315193681347,0.02196642035575036,-0.0445206823474007,0.04040388339697132,0.02122651348416449,0.024000773401098296,-0.036992175733491006,0.005899141272633468,0.011792351612954999,-0.04800506537882543,-0.0063197959999095055,-0.0141763975843201,0.0031415309649633905,0.0004772836167532546,-0.039561038660739345,-0.01650322528365311,0.030075206984110814,-0.02189864749623538,-0.0008556275880234887,0.059356889843641625,0.008803774284499744,-0.02920761569955488,-0.011059113703086876,0.04601665573296554,-0.02610646595058108,-0.006971705825683627,0.04166660168625547,0.008282908525832244,0.009767861651513554,0.03852548488806207,-0.0018780870164479824,0.02524317942857479,-0.01906040611277715,0.013208212465667613,0.014896380913188567,0.04586283859979012,-0.038077468208354004,0.0025303121770168246,0.033661794258211364,-0.017296246318971864,0.011578335299212927,-0.010269452725496175,-0.0002526359243620879,0.025327112479795577,0.018162848150255373,-0.018352998085666594,-0.009271375048929165,-0.028823995229878663,-0.002631672398823115,0.010783142561509251,7.859560096701301e-05,0.031627028274874514,0.011935095514181482,-0.010218975278797227,0.008498574229609757,-0.029772639466703055,0.0073360220638749585,0.009234328836057237,0.013157680636763258,0.0327659304131207,0.028084802580726764,-0.02255847161127389,0.01599874523652245,-0.020343371358552576,-0.0266131685379547,-0.027412497032364258,-0.035956566517523325,-0.01728094513559475,0.032650893450127505,-0.006772586243544376,0.03090667102746192,-0.0007825362025718485,0.008194116239732319,-0.028562267746976677,-0.012911836774627705,0.026723132072206335,-0.014329748664764108,0.02321777578086004,0.013945642760200494,-0.011226300965734515,0.006364814680021702,0.02880456444212154,-0.021759463024163872,0.007895018495972073,-0.011353461396598985,-0.011743891497596803,-0.019035240606098847,-0.013781579874396432
2019-09-10,0.00795404665206978,0.011812875639466869,0.022188903308689056,-0.011992643490255195,-0.026536073337293575,-0.011313903625637,0.009834373823276676,0.015628874955007088,-0.022135987194596196,-0.019666276894979018,-0.006626083161897611,-0.0031734609349541865,0.009980366748446379,-0.0021535771284846295,0.0016241955083189374,-0.007140580428030674,-0.019917789488434923,-0.014622140999460131,0.04467579680083156,0.026796022704541844,-0.0010400089674978963,0.0032674615605921,-0.009277491243743219,0.03818323129894541,-0.008852474025038415,-0.0152611277610043,-0.027033725975759704,0.04903167080611559,-0.034776646270205935,-0.005897299060526495,0.029463926858161793,-0.031742956051025395,0.012627606908071964,0.0021139599529877984,-0.011924767510384626,0.007080930555012799,0.0049828874006496715,-0.006161663147630891,0.009838738302081707,0.00625419018493556,0.0023806123370013754,-0.01250413136036177,-0.021764477399357718,0.022498521757776224,0.029851208706032972,0.025148386607366957,-0.04236032642258203,-0.014793393454851755,-0.0028895566235219716,0.010512232515312636,0.02411778717626678,0.007866221853904731,0.01304347826086949,0.01330648902649978,-0.0028948859397216475,-0.005825281776550062,0.00977373904909995,0.006596369908800526,-0.03228298858840262,0.008179278295151082,-0.010541505120092998,0.00421920317708957,0.002762199142902322,0.02413500663477408,0.023890020076231755,-0.00586509483558495,-0.029233398910468056,0.006865421474092859,-0.028993200121014806,0.04305812965811895,-0.03859094982778377,0.03950869762483489,0.01567728132047641,-0.02797398406076479,0.040941330705885015,0.003716226507051612,0.017451751363440904,-0.014285679836794851,-0.014619260616926533,-0.000315894253360538,0.0006462689918740327,-0.04708226086491574,-0.061537523193033294,0.019711279545451488,-0.007485655738332042,0.02336149344037919,0.018415538168466528,0.009564894181256056,-0.0026538276763173885,0.02455896535861557,-0.014345849876581163,-0.006688817012202586,-0.014765025667117126,-0.016162374726669038,0.0007356554454385211,0.01296818254819243,0.023750908683843885,-0.026167573015450807,0.008725618768513188,-0.006608943422877989,-0.0012561246568457696,0.020604535284641345,0.004434814944731302,0.009120625351235034,0.01262214147680929,0.03586786259465824,-0.022828878660988705,-0.00438044938033344,-0.006831442591251458,-0.019876806849043138,-0.021897273318204125,-0.0034349518216852948,0.00945820720720647,-0.01476845930249615,0.015911257543086865,0.04206938873430999,-0.004860007217586726,0.0046883564836723846,0.0023478718417906386,0.008010490324251052,-0.002842007351690934,-0.027294658683981177,-0.017531763002804013,-0.011727057274365627,-0.031141690480523287,-0.0029788271258922583,0.02348164026032995,-0.0289193171549752,0.008544548721313605,0.01614951656595376,0.0012496541256612481,-0.012579072871790165,0.0008559798184146761,-0.013787062154353658,0.023453051782098555,-0.003019910947081983,0.004689665649205033,0.004880058587678704,0.006662306816407559,0.020957305941158966,-0.007926391212893402,-0.02113633610595167,-0.012578695669542617,0.030246409029027532,0.022450685202177745,0.04329881274520897,0.028908958611957525,-0.003836133897289651,0.04564691865433179,-0.018529506579713306,-0.028027726426848032,0.014166309278050848,0.00676692156687575,0.0,0.009263860511695032,0.0025313227273227046,0.008821800796439128,-0.0010635699823338118,0.020089141340229766,0.0008195606514884712,0.011307395126153752,-0.019068355778483204,0.012567069213845983,0.017427867144750087,0.0,0.001320090480295688,0.0003568323587648248,0.019299204651118007,-0.03243606974489699,-0.014446950234178857,0.017218770792049254,0.016893876222292326,0.004010085718569201,0.022906694779122327,0.014114218534646339,0.020312215965762936,0.000558526791720082,-0.01658363124989104,0.011278550748778038,0.011347732906261898,-0.00029489404818117126,0.017052061909748284,0.00742716485938244,0.01771152979962154,0.020603751843983664,0.01691949712355134,-0.023118692504031535,0.00420788172063058,0.015589444007195752,0.01718075838229116,-0.02234769795587621,0.0016092539526086913,-0.010123249908401188,0.03276916424260423,-0.01342278766884275,0.00445806234476831,-0.03022853294343031,0.02664346534538331,-0.009613429261991824,0.0029912993852458936,0.011294741491963523,-0.016652050904087723,0.023746099871657655,0.0383912192181417,-0.02333948460970192,0.020813100426272824,0.0018654701314704258,-0.03287966459709735,0.02048061681647817,0.012738348076455797,0.025466892528033913,-0.0019263390175663364,0.03133918759491583,0.01771233801514649,-0.011693536980291408,-0.015907990955142504,-0.008819107894896483,-0.0022006155945546446,0.025009789704470764,0.006047114955680666,-0.010951635332549836,0.016399835136213126,0.009508627863515695,-0.0009575789912709132,0.0027535402139606813,0.00027041537189020914,0.0029194338804099385,-0.006434237328198145,0.004268627040642459,0.006946524535283327,0.00565174057810669,0.04443924890680129,-0.03892571312273141,-0.004203227068901194,0.013701909901475462,0.0073702191441502585,-0.034888795839367104,0.007619594198466917,-0.006606852601116264,-0.027188759508426585,-0.038066557640605625,-0.0041695669954142645,0.02198287322110004,-0.013721074513605602,0.014084298256511696,-0.032257860245417325,0.014697513313597144,0.017596333752843085,0.009260855906625176,0.004541045957540124,0.05946509341754336,0.016797399790145162,-0.021325124615052538,-0.017923105141764206,0.010902575199452702,-0.03823027918584676,-0.01047126596965997,-0.0421741754604571,0.006098072036622826,0.02954855665722489,0.005292254008127051,0.032678496167612536,-0.04560484858328684,-0.008049384373730373,0.002627364320606951,-0.021573698055060375,0.00207537350955711,-0.020750930756157526,-0.002079729173387501,0.00396384001559813,0.007105817967099748,-0.0049287656229278776,0.01417017367964335,0.027327954157841283,0.014847759733699117,0.012969254877645886,0.01681864889278062,-0.020597931156515314,-0.002036169913433694,0.045749816080005834,0.017051582920728725,0.012567694544337149,0.03246645803901105,-0.01307886245619716,0.020433740652352483,0.012752633204850872,-0.003958873323301582,0.014933699216419072,0.011426836195227663,-0.018744191400844823,-0.007949133780932538,0.021582251962936727,-0.014384304301093609,0.03660954369553937,-0.016070027642548057,0.016371155862539677,0.011739837351498972,0.0295709675919531,-0.004975892372568014,0.006522989500881593,0.022146396474913566,0.029809795498633385,-0.01887673497901632,0.007934864809243214,0.007732135531463902,0.07894003341266043,-0.022574227780398082,0.006392930681963671,0.02838813171351129,-0.0024855372285432775,0.01691744494885339,0.0362462352271915,0.024553046433036574,0.019101598779726947,-0.005551094038380944,0.011605620154009122,0.006993166121145755,-0.007984240311339152,-0.0030417408255895007,-0.020200904805542264,-0.0014913679807733171,0.020530356504356417,-0.04329375092553234,-0.040462797807612416,0.020681141508501755,-0.0024853203460650786,0.014935404876489589,0.03394949565839944,0.03687658365641311,-0.04254562325177702,0.0028803607580802915,0.019025402575653327,-0.03225203941953836,0.0053896814042331265,0.08962980530813214,0.010040194277511016,0.006916474567900011,0.03011100067367134,0.007275555339963491,0.002669979802787825,-0.016069488271636567,0.0005215059163534708,0.02147339983397889,0.013066272225694675,-0.016862041328335464,0.007046147033744177,0.017474081051690682,0.008152000096588896,0.002289088799341421,-0.008629565459248756,-0.009477965077338557,0.036228846948498594,0.0011043444093981059,-0.017824885033604798,0.0371415598652407,-0.02513141394707652,-0.0009069548366044122,-0.028523903493150926,-0.00047182842783055623,0.04754942863664846,0.0026336393303185712,-0.012182315655021703,0.039124623189238816,0.02325784586869095,0.007716717596202516,0.008728613691585618,0.006082477408175357,0.02758442530395744,0.01730079822499242,-0.02864235271122817,0.02897465675310351,0.0005631049018504086,-0.031710601310203645,-0.02560904182068313,-0.021737904609741232,-0.026646487068785252,0.03256249656928101,0.017899688387958967,0.026569997039711968,0.02819364679914793,-0.00764958582228803,-0.0018790243751805047,-0.025828418492410576,-0.0020655022336870665,-0.0334979262108791,0.0068881089463983525,-0.0024067266277788546,-0.0298672653585621,0.01711298084623447,0.019537736668007843,-0.006309999712008074,0.008113025274334662,0.010967536721677495,-0.021560042161505866,0.010504749200532126,-0.0286593676705047
2019-09-11,0.02969094279402329,0.03179502118410871,0.019213631308797607,0.015743523388441538,0.009016203150468138,0.005938958658154858,0.009299513156871608,0.01886340472390957,-0.01941243451628516,0.04471458953549079,0.007546104852482083,0.006587274589020753,0.02437378591479944,0.00843657758832661,0.019819618847784826,0.0055759695444350665,-0.0014758524486633284,0.014952420854969173,0.014206056136770506,0.011079871692294851,0.004447528153127767,0.01699577278677955,0.027296036297187243,0.007952477039630645,-0.015547446922644648,-0.003393809242844159,-0.005231812916215883,0.0064992305029030195,-0.016234318856142682,0.0013402724765312346,0.03727828455146698,0.005819934394967197,0.0225259058951921,0.012236358289545501,0.011975023320097922,0.021205468697467866,0.00374613077627739,0.004748917003399189,0.007076933600044466,0.012124547356652249,-0.006069161034176096,0.0034760019191242275,0.005881833578599727,0.0037915881584758004,0.03640153310958283,0.003748012574910531,-0.00013952738124045627,0.009311696158722071,-0.01709642672090439,0.0018805606373146766,0.036204204886574054,0.01748376528942064,0.012703891475824847,0.015554280196264703,-0.07548746776311499,0.010482268661709204,0.01400304922886253,0.01223264169664251,-0.0027999254963789744,0.012481427363006281,0.02421307550782359,0.008478934999211596,-0.0011599052639728047,0.01939509080350632,0.021490819803710703,0.0026361852372769334,-0.0020830054407702248,-0.011125048214200794,-0.004737576482190531,0.0010067596835721115,-0.004561280791777422,-0.007876860464795965,-0.0019293678351426369,0.004051390785887676,0.02733573292993885,0.008686580182087011,-0.018788682513598998,-0.00268383367766023,0.010121756058076636,0.0041064179425878145,-0.0010764193300215608,-0.013873617876655198,0.014251620773151785,0.009146941757258942,0.004262890093332361,-0.011202760063612205,0.03752993651757519,0.0028310265086177733,0.007679641651695324,0.015624864278524608,0.022239759790057212,-0.021245768924447073,-0.001607007465111554,-0.0025938622387278176,0.029669505438054022,0.01666341467863175,0.0039610565245333795,-0.011848743437127052,0.009576887615324381,0.0248601046443242,0.006132153513180194,-0.004677800679415922,0.018439148736353106,0.00238749192957588,0.0021007184790600153,0.006766258283248616,-0.0068749435367526646,-0.005929910869041932,0.00040444749340173836,0.02130479198505153,0.0029458247370695023,0.006658717135284542,0.013008280735067546,-0.0025943336093960934,0.022256594756116632,0.012089628421484422,0.0019694023659093673,0.005289356997668637,0.005854219307650288,-0.03000321892149238,0.016693330321361444,-0.009187901167941881,-0.00035494749734932274,0.006716821656036265,0.008142944551552178,0.015138230372517159,0.0001373809223741418,-0.010979608938406993,-0.01100589301997179,0.006017390760908237,0.011610602507929668,-0.005644726669140621,0.003664472749400849,0.003113704542969886,0.01370364948670888,0.0058795896304850714,0.011981083928907621,-0.0019242138668813524,0.007859422351773393,0.0045027265030304076,0.0029194684261770742,0.006564133395689398,0.0,-0.007440241317675067,0.021653137357602992,-0.003952331285894561,0.009868711403532071,0.018185664980173266,0.010221482052077402,-0.0005331800219535721,-0.016298605474151184,-0.004656112870555007,-0.007305588160047671,-0.008746310460137852,-0.0007340602925589579,0.008079804275834546,0.028859257365183577,0.0038857110844614517,0.02406990036291834,0.012279972912147219,0.014907217196209688,-0.003851153579071731,0.009122553882225715,0.027063876996667346,-0.0030319492955781513,0.011749498657829704,0.011860315979116187,0.008952694357473145,0.002360132876867871,0.0029795803151728695,0.005425850128959686,0.014687297885737083,0.0009983271011249073,0.008065204567295092,0.01670153720047085,0.008992987875122926,-0.0014593780239079424,-0.004384463278548467,0.011474521981893693,0.0170975612627855,0.009846252690336232,0.018555259903104915,0.0036863337316221934,0.0199222904759222,0.03035985548804776,-0.0005737613308072209,-0.009112792785289647,-0.00014438198986810313,0.006738902823093973,-0.00999672432612475,-0.011761635666098669,0.01255459137712811,0.008722775376816871,0.0290650210832355,0.007316129739850519,0.018718783077707135,-0.005344581801781989,0.014794781351597841,-0.001196781664700275,0.011034928507126063,0.04085205830977756,0.015820000686781466,0.013853301679899399,0.031103394531667217,-0.001889373716381204,-0.004215384408887024,0.02676287732690774,0.016543121858402676,0.012504697554532207,0.0027381340306804614,-0.00662268275079303,0.0009142252708109755,0.011049802621119875,0.003978039721420634,0.012773137290470249,0.005794893239981391,0.010874917563835407,0.006801315774074945,-0.009682679354167445,0.0024042911412871515,0.014882649302462081,0.0131332940982265,0.0002295601384632029,-0.003834908700727113,0.010176520998358862,0.00531053964091166,0.0006031207737773325,0.00922294459711992,-0.015527351139255186,0.008924448005950714,0.024915721497826615,0.0074043854379606255,-0.008739508968474197,0.004768016594626001,0.010630954327210729,0.017229237535771214,0.0024799581188557074,0.030787367128989773,0.039834626139235496,0.00770835945188475,0.0033129175830040047,0.010699809166046181,0.011598913702296931,0.01246164826235252,-0.0017359767690648953,0.009166273870410802,0.0063858317221028305,-0.004618884950839175,-0.015408577138352197,0.010849749235775308,0.028531099509809144,-0.00679139442692156,0.015057144091722652,0.006626948471169625,0.008260344087670735,-0.0075294697447882974,0.00029401274146634293,0.0053521790964075056,-0.0005156979551912411,0.026499310558530498,0.02206910743164614,-0.0012804041918549336,0.00030568764022098627,0.008894199632889732,0.018411172917699226,0.0009722517496226768,0.005867977544373293,-0.0009215374707270962,0.010589425711130307,0.016320256235360375,-0.008511322311439806,0.031370356142420563,0.03069769816823631,0.011970318380018607,0.006277697109524194,0.0020215734316597622,0.0027566378438255157,-0.0010853686948464336,0.00734485822461739,-0.0008534981448915513,0.014782855153706809,-0.0071379602116544705,-0.003015335242158468,0.006316317910436853,0.005701480941191717,0.012428460725741441,0.0036802524673202885,0.0008026888787917574,0.0005296459560324429,0.011594708455405778,0.0019704678308840595,0.017486024052427496,0.014885918216403393,0.037331989992761994,-0.009367193518950767,0.007651037158485252,-0.013706301955505151,0.0036892888682116265,0.012610268942987446,0.003495973908097083,0.025000012569894814,0.015107869641075355,0.006814300461629008,-0.014619920634191819,-0.004758924203469017,-0.004181111176061236,0.009412859092785109,0.023178689188936064,0.0007032276845178043,0.00732908526653242,-0.0013743722464102381,0.014365913519496232,0.01767737312098383,0.016818896030658115,-0.004986835980718252,-0.000549034321420061,0.007233756384866341,-0.0002823388631214563,0.0037532476174058083,-0.008852617346142844,0.015234419264357868,0.0164912213501065,0.00477004718544749,0.00697267779410482,0.01930829409677748,0.010867742247558931,0.014153145638911235,-0.0037370512847246795,0.022591943246507373,-0.004510170871360852,0.008785274984126845,-0.020779318563202698,-0.001386813053166902,0.010510037656007665,0.01971444126467259,0.01590429188710618,-0.006772887971478125,-0.001899396947903309,0.03997518744997142,0.003845989099266367,0.019935568883832522,0.00416933363378269,0.03086734138361069,-0.003886980948959229,-0.007565570559571189,0.0024016971814817545,0.01736943513696665,0.0012863565600320648,-0.0038652549998083874,0.018791099420990998,0.01735107910104361,0.02423549151191806,0.01900734028784834,-0.0023195925891750235,-0.023874512326971353,0.010557449036573185,0.018981552921621958,-0.04501550953781319,0.012121990400117744,0.018912929497389097,0.009365003628232005,-0.0006273666798956024,-0.0016731032665803225,-0.014130171542364733,0.0075279133481944704,-0.0016112786105206833,0.0036764656719452393,0.028778775533255585,0.001611259537988019,-0.007768781020384585,0.012120245472676539,0.02195021245503015,-6.411971873088174e-05,-0.03029860036189247,0.012280019712132662,-0.006948197778278931,0.029707640359731613,0.007034084067196078,0.030588557728865373,0.03615749799343404,0.03259991659807393,0.010742193190801164,-0.0022758929420130247,0.011177554363929643,-0.01284310561999702,0.004426311036599406,-0.0002586096455540199,0.010807055357659356,0.02377497817940033,-0.021986465613753725,0.00412773558527757,-0.0019423896359680448,0.011997640747122285,-0.012752560264543411,0.012777910678833049,-0.018938711172248768
2019-09-12,0.007533532491492689,-0.0022362563397636537,0.019283421443247795,0.008163668713288441,0.021685425766271527,0.0008639579358831195,0.01017054692635,0.009744356937783305,0.0003743340493433944,0.006594713160510857,0.023137715232604883,0.003598440505581557,0.007717231212996722,0.0013616238105140788,0.0028267154801093763,0.009321459957507328,-0.0015915110355896323,0.015513386309374821,0.0057779975192722155,-0.028647766773527095,0.004050632654283959,0.004002427171690748,-0.00601229726070629,-0.00394470927517887,0.015120929171032138,0.019523054592713862,-0.009395626311065497,0.005564447357232938,0.028913956205493196,0.011278173776551048,0.012681839932636496,0.007325489212054226,0.01711280370698187,-0.006252762969084835,0.02001479331792022,0.026775963091324018,0.0005488529629475991,0.006892935512107234,-0.0011860320230299148,0.008624109126109447,0.0,0.00420610438980118,0.008644066247654347,-0.024072620923115795,-0.019089087623294643,0.0071280910669269115,0.020590016995677196,0.012801564416912603,0.0002947293084563096,0.004406253093136359,0.010515387599481452,0.00030663822493792736,-0.015468761872428516,-0.004268150399119541,0.01570215104657069,0.004435823103022152,0.007513956679954248,-0.0006472646904787105,0.001531013927061231,0.002180984529378094,-0.0014183820254347612,0.010680174450726332,0.005805557030049702,-0.00818338051471812,-0.010068614774418116,0.0022534632500852414,0.0006087932576146482,-0.0070767444262227475,0.009270483912179328,-0.0018104086849185519,0.010386441003467528,-0.025407094809014374,0.004418498385183378,0.010853073960287007,-0.029415473286449445,0.0,-0.017975276763595005,0.015787468715615205,-0.0076870624925270414,0.007990931025032566,0.012284403531665156,0.013821940374409314,0.007807693354099365,-0.0026586829556798364,0.006204007908695797,-0.040401869152781655,-0.01742867754544597,0.008904342069146809,0.019487068930758467,-0.014860212975403742,-0.03588082411875393,-0.002751988918531567,0.01102177938630411,0.0016098731073432848,0.004282890590001198,-0.001999101502218048,0.00817247732526627,0.0019916940982167564,-0.007956027959063472,0.021523731153118675,-0.0014065736005800522,0.0011543796534250195,0.001402636139191893,0.011228170108768643,-0.0036336510799975796,-0.011444008243455706,0.006986925227843166,0.010006612730015352,0.006471367384265125,0.016057304805680905,0.00961875698299175,-0.00698476609843901,0.005208349747447549,0.00028891174558443034,0.004636339741743489,0.0019203213601926006,-0.008962483639791685,-0.0001547250080758955,0.004974250948775127,0.008192574026395949,-0.012861214991053416,0.009774138696915236,0.002941442457042198,0.002891286578388108,0.005667934134427899,-0.01224400620157362,-0.0035715579293003064,-0.00025343953042999967,-0.006604938511901137,-0.007515233452454528,-0.01666037101564899,0.01975625672837711,0.008396904788606108,0.005710970331237686,-0.008292750160801221,0.008679436630806725,-0.0024603492365914414,0.01193474015372109,-0.017442855940982382,-0.00843777264108736,0.008425782024011674,0.003947219798236201,-0.0010613697927949195,-0.02583083950228382,0.0038804666363991824,0.028769490169674894,-0.002586238309392863,0.0008404843302984855,-0.007237310181831713,0.01909275536710764,0.018529405780866925,0.008636146013290658,-0.007948357928078464,-0.006176647023536486,-0.0023515292221382156,-0.018534782448499376,-0.008641727974921243,0.004294808371711145,-0.010683677298057859,-0.007683026294346362,-0.016160141993519672,-0.00423415843403796,-0.004204629441444618,0.009006212908089672,-0.009883363862319916,0.011539453729295657,0.01227047507095147,-0.005405415227431765,0.014428718692209852,0.016159655371327908,0.008948565130444397,-0.00474571779754962,-0.014962794412816005,0.01829945689515866,0.0027377580347744956,-0.019654312040424893,0.0048998235427304415,0.015074431088696327,-0.016290262925298338,-0.004307600098773401,-0.015471989189622115,-0.0006507492712127805,-0.016264413888728346,-0.012123970261744166,-0.012302515243725831,-0.019517778307367784,0.0007276810839451642,-0.030454253262840347,0.0048344590106195184,0.00013940571869430762,0.013922845690443886,0.00022140138291404377,0.010913824972544006,-0.0028244609298017087,-0.030708506103758415,0.0041675157820133535,0.007966040470051672,0.011711486722082887,0.003328230141913968,0.007079840484799371,0.0005738462857198812,0.004094447182133365,0.0019430618054503412,-0.017643893142979317,0.006458691632037938,-0.010799055251155099,0.004079793972098011,0.009378417361948665,-0.005641636550178686,0.006143841100273217,0.0016668934398147428,0.005176110246107424,-0.008538228013172389,0.009906346758622453,-0.006903411102092694,0.01266037375316631,-0.0014669297334177767,0.006207749336978097,0.0007824655557309157,0.007195808420422667,0.013022032523536842,0.010740646733091497,-0.007808953436336363,0.007747019979143621,0.021107532671117202,-0.001969885469566224,0.01331397414371982,0.005249836609916958,0.0034365489702294916,0.0036751790824669506,0.004935311190481295,-0.022517485150044148,0.023893274269218612,0.0008556325180568702,-0.004357981285996737,0.002088144882998799,0.009276537243250838,0.0005240867045381847,-0.01636028931250466,-0.0005165523468952937,0.005503686643326011,0.01610967645038852,-0.0020849408616726572,-0.005411443220024736,0.014608799200984901,0.0024141854608685787,0.010872255134959818,0.014873574238094323,0.010198731175454778,-0.005813788763589844,-0.0004547990660290768,-0.017002724937381974,0.0047032504614574755,0.009622209142382099,0.008648277697999474,0.025054095015291544,0.010285037004257092,0.008497820069914175,0.011482967865983795,-0.008967114800026987,-0.0007923114174446244,-0.0032967089781348324,0.013202353578187997,0.0030903348344664128,-0.0015494491302152635,0.0020466928902018733,-0.001029208409392579,0.010605150358186766,0.01775101582454819,-0.008287945539556363,0.008471376894168436,0.002490235821830389,0.00920664497163104,0.008073461888625566,-0.00032523061641664963,-0.0033624458338873398,-0.008934742357185832,0.01181711495700477,-0.0017552586817636273,-0.014391496921622005,-0.04263623666230487,-0.026854754226771416,-0.019226447241665,0.005415305387637348,-0.015624780760753354,-0.007430214042045802,0.006820020460340137,-0.0034752760620693213,0.011996818718998492,0.012369298866874212,0.009176782762764457,-0.015504917298734822,0.008628597208703015,-0.0025163569723387624,0.018790203651547488,-0.002264461804715623,0.008602679714761141,-0.008926436466229148,0.0013954811680483292,0.004503963617675577,0.004227572405455238,0.0022717140653449874,-0.0004405487307099776,0.00022823030799079547,-0.0027322763586471455,-0.0020992822662279087,0.029609737357735977,-0.010263117912828523,-0.004919698681413842,0.005093127986003587,0.0029998809441618146,0.0006157793677754597,0.007344214805817151,0.002192027302095889,0.002019778441908704,0.01434831386870905,-0.002585679519144235,0.012626603652259982,0.009694368625711602,0.009754282801697878,0.011106766991785921,-0.009090075390020824,0.015109145374596178,0.011870743558574759,0.007250115209559427,0.021899771051375305,-0.02171923111155427,-0.011253875032025906,0.007859461125842904,0.020424836693897275,0.004689252228557539,-0.016468994597988562,-0.00047615071453155355,0.0027920977782032175,0.004500032338409454,0.0016012275703767287,-0.01354166344711516,-0.00033986032333788163,-0.014130047285889513,-0.002357638527156536,0.009588892632232504,0.008434021185472984,-0.009292755535012853,-0.0023056729622810135,0.027259990529543643,0.010521926240059765,0.012660729585646235,-0.0002753482400276175,0.000882264255719134,0.00010184510435018446,-0.0006268160962429326,-0.007758404598010693,-0.010139987606191725,0.014155741704243052,-0.0434276844687248,0.013969967485142343,0.00024306735615020614,0.029522060317262566,0.012754737890886547,-0.005277620050008203,0.011314777450520008,0.0046018408613548445,-0.01386105198097809,-0.008722289229066926,-0.017548385978564673,0.0024510202712180185,-0.0023604770850027545,0.002977450405479365,-0.003931821641153133,0.017144605338805574,0.012459393127636886,-0.002409437934905001,0.016595700899238786,0.002254331865765735,-0.003812625843581108,-0.004057953333083009,-0.012872130063808385,0.004988980061714665,0.0045661418257225694,0.00657270737942528,0.006220990447334485,0.003067637078742358,-0.002623209855936892,-0.004094076687641057,0.007574595632810155,-0.011797968492188393,0.007757366612041405,0.015385461061333094,-0.004287541817878604,0.024142883202413756,0.003580047496301253,0.0006953086774117434,-0.015386383852952323,-0.0046575917254757515,0.016537463652752438,0.008202194848212274
2019-09-13,0.004254122461530674,-0.01945395303578712,-0.004517776482368285,-0.01103146986805259,-0.004602815094006174,0.001187026483291831,0.0026675834353653283,0.004342250454802965,-0.0041771928274887404,-0.014194917330667578,0.0013069789779653895,-0.005216137635145279,0.007658052560215234,0.005828444054177373,0.00933768524794476,-0.0047769714295053944,-0.009452519345971688,-0.0063742632737339155,0.0,0.016321189916441048,-0.007224501706621034,0.021787086285096402,0.0019509873333372063,0.01188120610272514,0.01588882701528016,0.011374040660351525,0.007577355266168206,0.007172900511908775,-0.015901388861267463,-0.0022835833039022146,-0.024725965728591648,0.005902158977767913,-0.028427707272384306,0.020973334803711774,0.007114803535155367,0.008089277560595631,-0.010641839352853455,-0.012126660478441909,0.002649529052580757,-0.03413408572542487,0.031415663986226194,-0.004434928029916518,0.0015124043070475768,0.01788203073062178,0.0109947896616589,0.01685208418174322,-0.008587666995115928,-0.01013465854723794,-0.004715545977336921,-0.005531030314448349,0.004028121219089131,-0.015183755340318683,0.01859587348637093,0.011017013438139989,0.003533368965541017,0.018884425320270237,-0.00362807061150372,0.012739922524571679,-0.002252624696682526,0.01059755663012707,-0.01017993106271553,-0.015214074740691585,0.015728959535755704,-0.005363274658054307,0.015408171356560363,-0.00705812406669748,-0.03476457359238716,-0.013157916751484144,-0.017073675626602114,0.018742392153542786,-0.00922147537839313,0.016496893866431828,0.012648018144630457,-0.009222283021763644,0.007519114800065729,0.001223503561580852,0.011762355681069314,-0.002560848526783621,-0.021856612407841536,-0.007865247934193964,-0.001916104462468704,0.0020450248446939323,-0.021838663328500485,0.0003634098791560625,-0.005841322362971857,0.011361152665733343,-0.0010038470893030116,0.007641977629659014,-0.011442496254820744,0.017568769610540436,-0.014414103199233974,0.006933671714254297,0.010970696578081363,0.011498520484142016,-0.011437702962176943,0.002003105914260228,0.012857863360157484,0.0006895612092172598,-0.007865526683384028,0.007358011769927009,0.002503898338501287,0.0006589092673414676,-0.0002545479563745845,0.009589709718845318,0.03156105632859463,0.013230553375212395,0.0043282681841871895,-0.005430272957825055,-0.005625893898677625,-0.00507968544841364,0.0037819694497098766,-0.017466241109227454,0.008218672046455211,-0.025137058103847032,0.0,0.026186726921029413,0.010154214589746857,0.0011302372437327346,-0.011162617663362684,0.02587066986780706,0.02076538004702866,0.0019855989920376516,0.005663101828708994,-0.004213418584097073,-0.004508928413843982,0.018633615000145376,-0.008409046238326945,-0.012168944413658456,0.019825757857783843,0.012981007264120548,-0.00363959220640675,-0.003859995890366119,-0.005792666398810042,-0.004289907183780417,0.0019475324425406448,-0.0032486054848106516,-0.010326705549181803,-0.004309353568931917,-0.012740162599573779,0.013429084530810487,0.004937260067460425,0.00017220802321005202,0.004250632837794033,0.005823328299332298,0.00029731238665209325,0.03760877354256653,0.0034001962064651448,-0.005458827451642501,-0.010333296938597969,-0.019184550845872783,-0.012416988382963456,0.012486741058926887,0.0002966129973696052,0.0011841220203903102,-0.005229711055153463,-0.0033175989846294662,0.0005717183858739983,0.0029039131621382275,0.009729912306218669,-0.003260017463738385,0.0024109111168892916,-0.0022184558261920673,0.006544894495979392,-0.0029755016277255297,-0.005374885637127957,0.004302320574923968,0.004097248294606226,0.011894696507495972,-0.0030347188899052524,0.004590895246967763,0.005303148332354679,0.0066755502223583285,0.026329245016099234,0.0011702313507748752,0.006826066890950777,0.0029532615967673426,0.0007698268828326693,0.006507633471908303,0.007011260138689357,0.013506560708455018,-0.005455581121933228,-0.0026038507775146824,0.01759996321373114,-0.023181698879711887,-0.010918023955102552,0.014051487754953351,-0.01778366710542345,0.023510917936558462,0.0025906386673828496,0.00034820580812344737,0.008942114705874804,-0.0205865590244102,0.008082096302997055,0.0015735895030719593,0.00473249128165909,-0.008866199424478416,-0.011295264639784808,0.01063076563801335,0.004113384154122102,-0.029198603564352,0.0001911140540498124,-0.001674766798751004,-0.000500324681181108,0.008111415001988975,0.009183837718607535,0.004017349419479954,9.921416421754259e-08,-0.007993138117552423,0.0026836675500272467,0.019676082935431882,0.013311038880782,0.005452351681498158,0.007578193662343136,-0.013241915906281987,0.004745615803780634,-0.008758678467201686,0.0024483815888571847,-0.00822533556700955,0.025009528355502075,0.008136053443004831,-0.0022087271934293495,-0.01758867512203144,-0.002777716354252169,-0.009454030864838758,0.0030799032789949887,-0.005203395631080743,-0.004577832766531342,-0.0009669444766043922,-0.004566245578459416,0.002937823201988321,0.014732459407891474,0.029720517108551947,-0.0002894171444328686,-0.013213262159302741,0.011169257517283038,0.0002318751119851914,-0.011029800200828555,-0.004923194037416256,-0.017590731428846373,-0.003286639495087118,-0.013318892703236718,-0.006432418830397357,0.010444977544202594,-0.0014934623151400261,-0.003428310773749943,-0.004372428872751799,0.010602260221416193,0.005041845585154192,0.024543077958002257,-0.03690987327784867,0.030482214723787093,0.0018802097036212384,-0.0018123040460050754,0.0016053223261260907,0.018953141167617815,-0.01183355190268387,-0.001453903265930978,0.005417060532944884,0.010523774411056008,0.001770323127705753,0.0011894870655981826,0.004777694689060752,0.005252517876980667,-0.010193223362068737,-0.0010350442168418628,0.018313412789246142,-0.0024047021990852846,-0.003992090575281826,-0.00421702665640411,0.005484567850557953,0.020329601784468965,0.0037260342147000802,0.01414513144727092,-0.001676424139301247,-0.012644784085162897,0.0053980227675807235,0.009015291665491754,-0.024969661644466012,0.007439619301414346,-0.008414899004937304,-0.002598060269547231,-0.007743065469486998,-0.0068283793264589665,-0.000856611801506979,0.004776235519508676,-0.010577781801221375,-0.006191104586919183,-0.009924915880230478,0.00819427022551733,-0.005294351684319132,-0.055858929709990957,0.0034691407601992186,0.005132471481432033,0.012519920392511708,0.0017848616498110648,-0.024699769771187374,0.015382337147392233,0.0023842508934666107,-0.002144105238329974,0.009897504101854304,0.0,0.018136887442520955,-0.024561222893338952,0.0,0.005675502681617983,0.0021036985232312233,-0.0009336605443063251,-0.00847230709643132,0.01377250554672571,-0.014622969956378351,-0.009008281448713684,0.006154004168957394,0.008101015151624535,0.016702913349234016,-0.013213083753199073,0.0037321075948559823,-0.005184225343394244,0.0029849717211334337,-0.0021031965977008626,-0.009078274899215866,0.004365170175692157,0.006386107831916954,-0.009678756000215616,-0.017162442247555587,0.012769789351871008,0.004768398774783078,0.00623542027574997,0.011652931852643711,-0.0025172903225660903,-0.020016012899168878,0.0023339317773787283,-0.008630422926501402,-0.00718593856291827,-0.013643365222259396,0.014601031723969538,-0.0026644174882988203,0.000490218493998551,-0.0059139163304686715,-0.002308026182724854,0.009748833941934931,-0.008452790034775282,0.007205610033932386,-0.012245707207969803,0.016355419496504986,0.009829905233368352,-0.003195708634945782,0.005114368552709525,-0.008720404851332964,-0.0029959352080511925,0.009085323801770961,-0.0036392031452091578,-0.015636997833018196,0.006942034462104729,-0.013418856132170531,-0.02254912383615726,0.020366303136201358,0.006639720718790487,-0.00903041356891221,-0.004684293102992676,0.01002166155152473,0.022040739329154402,-0.008952984929759045,-0.0028768003325118086,0.003095140329445689,0.020041944204713946,0.022299948899265676,0.0008972789993477726,0.006796860996403531,0.006279849590149711,-0.003988795607078988,0.021863708497239953,0.018425247293505143,-0.01060799354221087,-0.012762906131067453,0.014438999925940221,-0.016720668697801755,-0.024730153101447216,-0.007777551150174866,0.005080363308014979,-0.002792309905889523,-0.0015457130024172372,-0.004259757751555182,-0.022184148626623656,0.005549954615954311,-0.00990567647982843,0.016879024690432676,0.004361712711393961,5.120980363915173e-05,-0.016505271559499213,0.0032455819312540157,-0.007293438773669059,0.009169066123220437,0.007685384424067632,-0.016862069826058756,-0.026786483486081147,-0.00550583002393068
2019-09-16,-0.009627765813930877,0.00525729946864395,0.0009928769832048268,-0.010798771677936858,-0.0023635433763676827,0.01645405594337368,-0.010813677981200365,0.007927233276249446,-0.009828286340521464,0.002541043787496422,0.007441618686883977,0.0018571487173366652,0.013299565279867531,0.0027044804190876626,-0.011409359258333085,0.004799900416660119,0.006668145064179232,-0.010839545594934052,-0.0063514258704899795,0.010706000357330936,0.0053871240857170655,-0.0010757199684865437,-0.00837392351018984,-0.05381605789321697,0.004561726530212251,0.001763763690500797,-0.0071109157987974125,0.0,0.006500687614072076,-0.01712575737502442,0.0017640627841344347,0.001257345480278671,-0.029657631098817583,0.1688579483549406,-0.03149760399154389,0.006246121425941498,-0.006542485904908246,0.010823844576222319,0.003462892651895366,-0.00571781610960187,-0.030973722569844542,-0.0019795866241522075,-0.013087336055893406,-0.01618430592545428,-0.002396288423977877,-0.00132575499640597,-0.007287563924201157,-0.00011484455075994049,0.020284285238549637,-0.007556535792264896,-0.0060181197551349985,-0.00046714385281965143,-0.0021553047166507078,0.004384795123609564,0.047975587960534805,-0.016367263744269778,0.000809341572973965,-0.0031978793531655114,0.006773061745772413,-0.015355080613851824,0.0031092382001454144,0.004794736352108808,-0.007955592730213512,0.014309644970757374,-0.004709309665280936,-0.002641775310780692,-0.0005400411613163403,0.002222202442310417,0.011140753434615513,-0.032245392895948966,0.0028990301915183814,0.028651534566805248,0.003529852797211186,0.005557122347164656,-0.020780596509390348,-0.0053346236893208054,0.02890898305857026,-0.0015052360457388225,-0.018101783179164666,-0.0325281914369685,-0.013011862333102808,0.005831031363064509,0.015243827523258702,-0.008539268131053879,0.0031009532824388675,0.01585897316755469,0.016415170516230093,0.0076906621136967335,0.005240334869339502,0.09051298915532024,0.004435471919177925,-0.010997086183093252,0.01964942602464559,0.004522708197332914,0.00019614016848157334,-0.0013992308948687082,-0.0011037722688805873,0.003162072704236518,-0.00528532210028565,-0.023904453128159253,-0.009834512428924969,0.021564004276597437,-0.00038231389977805286,-0.015664136542530627,-0.019037103108949904,-0.005017498755532257,-0.029217957046139942,0.012164840117877329,-0.009295080659904031,-0.0026239282484430415,-0.016084675166347595,0.016650718249418217,-0.02923979296394874,0.010669685391520467,-0.00421379744926742,0.01680494959718848,-0.003377093486385152,0.012613871519112863,-0.008306768886152893,0.02295502998601151,0.12165947738021998,-0.001733903190723085,-0.03184973607026487,0.0013360969794911082,-0.009341457447172297,-0.005616601456028714,-0.006256055752212775,-0.011651965850287826,0.02173232396575786,0.0016783586719963939,0.07872507826318009,0.024459973722408712,0.0007281902515454686,0.005176436833910669,-0.011546888226548813,8.826498935721183e-05,-0.0010901859259576652,-0.0200910292811306,0.0023268116796315574,-0.010889798441946597,-0.007709496403911498,0.008611809531777759,-0.01587299216432514,0.08590905905376944,-0.005350911289786597,-0.02695182701465071,-0.003044136098763972,0.004010922999002631,0.005578193299598855,0.016656320575740846,0.009941562257607783,0.004580467015842693,-0.006526042779219643,-0.006799045212639188,-0.003184094293243178,0.019971852505370036,-0.007426668653755075,0.005316858916668998,0.004282697253689127,-0.00817681725466246,-0.009620745939534658,0.01056146260667612,-0.017095075233241608,-0.0036469462100625627,-0.04245996795047102,-0.006663738998098578,-0.006774050151312605,-0.008005474959585923,-0.008596122972911568,-0.0031637396225597803,-0.012187483439809799,0.000845791943713925,0.10952160746729733,-0.005927713154236236,0.0013697900029661092,-0.0009299680001808586,-0.012778739041196419,-0.004807583013702099,0.01992599488170188,-0.024882813737015508,-0.008944055958914787,-0.013054776229196041,-0.011006126258484183,-0.003489944716688509,0.012437858450770278,0.00519613717212386,-0.003567249373675585,0.013069689103066828,0.0040608043621868095,-0.008282914019688281,0.011559864440862544,0.0006404242549162831,0.0038039186421630067,-0.041398235953488016,0.02499013509209025,-0.00647137473365611,0.002261918770943172,-0.007012476760305919,-0.0033697373310720424,-0.008295100545955503,0.0008027181304497422,0.01145143687480421,-0.01865178130528966,-0.009770276205257389,0.01600668374429559,0.0003479891943098945,-0.007493347442908971,0.006198180655318408,-0.009481787325072766,-0.008899497270490109,0.0038313562809106916,-0.0060252908524649484,0.012649961148382127,-0.005466970118691017,0.005787712512949739,-0.027415127931174288,0.009770581168663472,-0.005528805128213077,-0.009530993547169575,0.0041341636979619345,0.00559329714327883,-0.005221997734367045,0.002495560296167154,0.03157394202769148,-0.018942552863800532,-0.0068534963601334375,0.020267116739055124,0.005421142557225478,-0.006439680646285639,-0.0026319270926044025,0.00035869052306192195,0.039411026427358165,-0.008106600701674904,0.008664408583287209,-0.026196301226944052,-0.011111221565350826,-0.01148677371799145,-0.005789521981242163,0.0043894304571772125,0.004946368154894909,-0.0005548036341571638,-0.005653175927881615,-0.016952851770232424,-0.005182020761139827,0.02132799699940824,0.00738297170463853,-0.0032193943296235927,-0.010324439013828624,0.006286084404486081,-0.014282079975897144,0.014128140558769209,-0.01651343841210129,-0.007021147499457925,0.0019028750102441094,-0.009078912228053126,0.001567589768700639,-0.007210023790762299,-0.006046203712289144,0.007384450101145301,-0.0018933738933204491,-0.006930676195839647,-0.02450622064939989,-0.002411489453648552,-0.0008237757319663475,-0.0036244463600962895,0.0004759455559784076,0.0,-0.000572473062183998,0.021309981892045915,0.013766335452448653,0.0004939842019551222,0.004773051876568513,-0.009399732751393608,-0.008208652519699822,-0.009508316862583577,-0.028187924696758904,-0.03230241664497191,0.018449516472960115,0.01812574793400179,-0.014476715941574847,-0.011348782221620612,-0.026634267360739483,0.06010176140494483,-0.006861551801284893,-0.008109098590984631,0.0,-0.011433793942427384,-0.002167478859879224,-0.015735727401911315,-0.01940732506317855,0.009906638005751756,-0.016737321374497793,-0.0014184001311653427,-0.0230690979755791,0.012234228279810022,-0.006160388580300102,0.008759407621839799,-0.0047567144107437676,0.004404706019192073,-0.033673815241327176,0.008095859456843657,-0.008015959549231177,0.016019525632961384,0.005248824012466624,0.01226032994869719,0.021254177454715695,-0.00448614811736503,-0.004718946061095131,-0.007837655798723753,0.002498108511361119,0.015162458822635116,0.0055044949264042575,0.002755141997662802,0.008703529991378689,-0.011195871249200073,-0.0056972407818927095,0.0028950337283639715,-0.00784301462602599,-0.014111471985837731,-0.002936346621746244,0.00014479780689469202,-0.005076216675743428,0.011374720616836642,-0.011715472594201026,-0.00045840287849252537,-0.025908521610482738,0.006290277398778077,0.053040413271327136,-0.0024625616896485347,-0.010398053348416814,-0.004490377608550866,0.002988456953403329,-0.0022794791532768643,0.0003528966428048008,-0.01046615849023147,-0.008014087944862136,-0.0011271447553659053,-0.01791385376427901,-0.001947732525626189,-0.00848454779585861,-0.013246209621278537,-0.013924748523180819,-0.015827014394882766,0.006646790108985723,0.007156294502751237,-0.016444465316310053,-0.0026383499159651214,-0.009537873475693237,-0.020325292105091375,-0.007160571495969381,0.002015026953095189,0.013105686665499494,-0.01757204036174953,0.00020517497413097274,-0.014830085736985299,0.013737288987936136,-0.0031369679669763784,0.02821747763187732,-0.00964423812658366,0.02334608449477571,-0.02835245080627291,0.011975047920177007,0.008982403339012235,-0.006215303086995694,0.003510266681773011,-0.014581564269636638,-0.0008150830560794686,-0.004034866510860047,-0.003922890063062456,-0.006543519135142062,-0.036712254191852645,-0.013213294782215335,0.004879281247966105,0.004291631409296004,0.014919404218173282,0.012574791020608878,0.005071580451891267,-0.007671839827714466,0.01343395490948196,-0.002627840423557126,-0.0249225562859563,0.0016451350758226457,0.016606385025863535,0.0012262878380544517,-0.0004463212330095834,0.011740983619620726,-0.015839374726767774,0.0015922421206349124,0.006567087709298924,-0.007321728778324044,0.003513833069497707,0.0150054475009187,-0.0077541378249126325,-0.007363545486347878,-0.008142250171705556,-0.011403097779965066
2019-09-17,-0.009721464828726711,0.0036380496374821547,0.014451475646556577,0.002639178364523209,0.00406877417186613,0.006220654618408927,0.00017383408411064671,-0.004051342050133355,0.004172523581723375,-0.001299778739122348,0.004794361284609305,0.011122130305010636,-0.0068750117625993035,0.010210094902044942,0.013494104773816407,0.011385566187376295,0.023755201229155753,0.019568377435180695,-0.01568813544082004,-0.009589124533227578,0.014664316295506907,-0.0055814405484293506,0.005499110880598623,0.009307370098528,0.005189745306780846,-0.005172647255577201,0.013602372475875812,-0.009088687661944927,0.020897523198917245,0.008136828085409498,0.0010647221599431322,0.01778981549489722,0.008409800272267454,-0.08541285064044901,0.02940919150265442,0.00031540785302341945,0.0005581036660873284,0.004961774900386073,0.0077195832821157495,0.0005888378566238917,0.015583501039126979,0.006447033318965678,0.011985918081161673,0.022411657840808896,0.014121781394152322,-0.006306164346456478,0.03878132169409554,0.007478349861243405,-0.007110690362903127,-0.002242019031551745,-0.009081700200840537,0.0006228999843578276,0.01092665544810889,0.002166006431397527,-0.01805987444510304,0.007964177775471981,0.005457555506003242,-0.008556360475915237,0.01858081527397637,-0.0008558357486009305,0.00906058847301039,-0.006286786887877871,-0.005012215351672955,-0.013289556661357227,-0.0073600204945265535,0.007378993130663591,0.022342312930492048,-0.004064992800216882,0.03276265632314579,0.009198791257406302,0.02464620469271006,-0.014803124604971907,-0.015151590153185013,0.0051119620668826915,0.011255388617320783,0.0044890582315046945,-0.024169199155406496,0.016307275013820677,0.006193187966538671,0.011510836392929713,0.008645069980742992,0.03734284231011298,0.03235520126096225,-0.004154481560392553,0.01480648032790377,-0.012359056982331196,-0.014172505541584335,-0.0054062196525705986,0.00811640305359318,-0.020950083218888138,-0.0072801070063414075,0.009421981006597191,-0.002014287300891926,0.015332223552585234,-0.0012417407500966426,-0.011008826991729337,-0.01671479194638792,0.010062194584609108,0.0001564237034052951,-0.014285751654891432,0.0007882284991436173,-0.0018530927628734872,0.0068796749924853184,0.005078743807324537,-0.01233704294982152,-0.0036455631878385963,0.023829820854617267,0.005488670184972788,0.01346152074292406,0.01194475064500189,0.0037556323117751145,0.013371286049904008,0.013508610714801028,0.029619018291934474,-0.005339996829614391,-0.020607989356509537,-0.007170212461475978,0.005151917078083157,0.008054377052788775,-0.025758490595155448,-0.05120937201044151,0.005707127199978013,0.014106226125718768,0.011119829982017437,0.011501391604649136,0.021533435909509402,0.004616729908230921,-0.006284015294985679,-0.004988856771763528,-0.010813605935433457,-0.051611313231228695,0.0163295066172211,0.008612515722704384,0.013937522487413867,-0.004163795548822846,0.00819143570338543,0.00826309559485372,0.020131044394496866,-0.0018993487905593076,-0.0002652104216823714,0.010740265317706887,0.00512310257762727,-0.002150418733230297,-0.043697575830691116,0.003287664714619387,-0.005730808701339574,-0.0015558951684091493,0.011144112710300469,-0.011236767116110546,0.010145925433536096,0.011580746153587285,-0.011574694741038782,-0.020005960679206458,-0.02202367390317106,0.007725544514606941,-0.002761370145217823,-0.006330902749298484,0.0017804716675275944,-0.002132553776930557,0.007007720756896374,0.004401604074504961,0.0089843769209208,0.006615687801736048,-0.06056592641282177,0.029024019829427372,-0.0017460552068692126,-0.0014208569366347401,0.0010215242360074317,-0.014089926958215093,0.00164539822090215,-0.0060308003211511085,-0.014096659152127544,-0.06491797680639377,0.001931369445323794,-0.00478810737942259,-0.030709632483893468,-0.003376785723120501,0.011660707534735026,-0.007095951534362932,0.012812153858517084,0.0015042183397790954,-0.008598061190112971,0.0,0.007938428745338566,-0.03624085266447108,-0.009190003092475307,0.03141065765759721,-0.016170903873583664,0.0014704220136276813,-0.001965075226705637,0.014910586648734014,0.02341503674194878,-0.0006416126829483781,0.0016391179054708882,0.009701329739058018,-0.004789159045297087,0.01023262883703202,-0.016713607656595575,0.013922077396577803,-0.0012392225848666394,0.012470397557847734,0.004759527445188816,0.004400697482046523,-0.011027208989524473,0.009496368669109634,-0.0006956656180923115,0.003431637157526035,0.007596642215804916,0.001004006107792943,-0.00495156562340171,-0.011450779035184211,0.024247260204969923,-0.04253896148320446,0.0034980631112069283,0.00932594632514161,0.02438262225273835,0.0033865659644811696,0.0051891552909966165,-0.012702066102369458,0.007057563473194417,0.00463483288643074,-0.004499389625267636,-0.007930805255658813,0.0012147281955838807,0.01973265965563109,0.008989412927437046,0.003361888368368371,0.01694577445556522,0.0008878550378792482,0.007831389969482183,-0.001433572807000627,-0.007471790452260985,0.007917138049026162,0.0125720657643269,0.0006131184110664822,-0.03347407947789327,0.011813242930169388,-0.007305379397241185,-0.0028440801050606535,0.02264105852644316,0.012026016040184828,0.002659339271590122,-0.002523422423523325,0.009988283066241,-0.003031335464452445,0.004422158337953341,0.015501908629710792,-0.00942993414454174,-0.02093530091765916,-0.002414796550856524,-0.05050052356100787,0.01908048742587609,0.005851596983667884,0.01429584731671718,-0.012067040237602411,0.0441305890368211,0.007775295032933727,0.016924680772055112,-0.009335591242662034,-0.0015598206262027459,0.013758632151037453,0.011623526998709277,0.034750012082471304,0.017910324956815993,0.029105759795841513,0.014645409064018011,0.013429744470446536,0.0036665894544345434,0.00818465212278996,0.0,-0.008503647876328846,-0.0052782427161663925,-0.018569410108190687,-0.0013167567692164983,0.004772047618428754,0.009668580523651382,0.01207396056306309,0.024334290604005826,0.00487905907560493,0.0027859310885458566,-0.005080825722538984,0.029255621160980905,-0.05543918655969926,0.01838147924908151,-0.0008451800176435542,0.00608571024855542,0.006079795313722158,-0.008959896184626448,0.004391847363105272,0.0117745962796032,0.008446490824912445,-0.0002784538987808949,0.009119394030857375,-0.008028764762179508,0.014315960880201928,-0.007988779921940359,-0.008967953706715104,0.007169396947060758,0.009305711336742295,0.0160368329743108,-0.0003210108247272414,-0.009090955594112882,0.014069384282342723,-0.017026277019696057,-0.017591278968629775,-0.01798521268532083,0.00920030374125358,0.008329312133706024,0.0014043742467129139,-0.0017589417561932885,0.007800037670514071,-0.010949108389299411,-0.011448192571091642,-0.03974787986866679,0.024634712140720882,-0.010494494719376024,0.010392667390274779,0.01311898180972726,0.005111981042997593,0.008245844612565945,-0.006300622375791098,-0.00011610036687714764,0.0272037012570836,0.01487363651766671,-0.011238528283922022,0.019014718876850356,0.014368531426160125,-0.02900043601796376,-0.02597941467484821,0.025968112521998155,0.011527050697156316,-0.0014247988557590796,0.02653332046121326,0.009100566231592166,-0.004792587004355697,0.0062835653792465695,0.009370255896457902,0.00522170066719152,-0.012563899857792715,0.0020653768069713863,0.01444576736725578,0.015416863998078956,-0.004020657087437929,-0.032493385212126524,0.00391565282141193,-0.005783215905408312,-0.0030235300224695782,0.002991636174452861,0.0082989881959461,-0.008871165544758308,0.008170171290392547,-0.013720078782781253,0.009328410568560708,0.006218300783900732,0.005435737150047082,0.029418663067129813,0.0040344006832191415,0.017725248330465737,0.009348704150356157,0.004562944490672516,0.013744943570761059,0.007058481711960551,-0.013126139508996548,0.03725885681516283,-0.008147414564245725,-0.012133522026930632,-0.0014684965549797147,-0.011297270399022508,0.000716186482119685,0.0019304947205847078,0.02330372688971738,0.017029217115597683,0.013608482042815506,0.00870485106915897,-0.008729952267621077,0.02991835572606183,-0.016972325339166594,0.006218514464817915,-0.006037486649269952,-0.012223573681884758,0.01460543074213283,0.01631787361134518,0.027263347312499908,-0.004491316939609802,0.017515422433620698,0.00040026126920333915,0.008133855692903813,0.018614508636174865,0.00869869183385874,-0.02289899440704457,0.014324431182394681,-0.007595123053512842,0.0034587870977960122,0.020444953262203747,0.008572432830823873,0.023236604031771302
